506506510511515515515512512512511514513514515515513512514516516515513514516512513514515512513515512511511513512509508510511510511515515509510512512508508511512509512512514511512510514514513512512509509511520515505507511515514515512512513514512513511515512515511507506504506511511516519513512508510511515515511504510510511516519522520513505504510508512514515512512512509511516515512512512512515512511514513509513513514517515518512511510512513512512513512508509511512510511512513512513515512514513515510509511512507507508509515514510510514509512512514515515511512513512506511511513516508508513511512513509512508510513512513514514513512513511508509508509513512509518516511517513510511511513511510509509508509513512512514514509510512511514514513514509510511514515514511512510511509513512513512511514515516515514510518515509509513511512513509509511513508512515511511512507509512513512512514511513512509506505509514509512515517511510516519513505506513511512515519519512509510508509512514511508502504508510510515515511512514516516518515519517512511510513516513511513509507513514513514514511511508508515519521518514513510500499508511513516519513509507511515514512511508509511515518512512511511512511512512509511513510516512512513512512512512511512512516514513514508511511515513515513513515510508508515518518512506508511515515514512511510514513511508510515512516514512512513511514510512508507514515513512511510510512513513512510509510507509513514516512509509510512512514509509515517507512512514515509505508509510513512512511514512512513510516517517508508512510510510511510509512511512517518521510508511512513515511509516512512509510513515515514515515509510512511507514514511511511510510511518517508508511514516512513511509515511503504508506512511512519516512511512513511509512516513513512510512513512510509512510510513512512515516517517513513511511510514516511506508515515518511510516515515513510508513512512514517510510510506507512512512510511508511512514516512508508513515508511510508513515517516518517513513508508508511517511508512515516511509511513515515515512514513512512509510512511510513514515514512512515517512511511512510510510513513513512511511508508507519520511510505510516514513515517516516515512514505505508512511515513515511510513518513511512513514510507511517516511509516513506511511510513514514509505507513511512510508507511511507511505504511515517514515515513512517515518519510507514510511517509512511512512518515515510513511508511508508510512514516513510514507502519521514512512509507511515510514515513513512508508515519517513511512510510520518518517511508506513504512516518516513505508506502509510513518518515509505509512506512507509511513516518515515516511513514513509507511508511511510511517515513515514516514513512515512515511506508507516516511503507506512515514511515515511509513512512507509507514514503507507509518522523519516513513508511515515519515512518517515515514510513514515510511513514509512510508512516513509511507511515509508512513512510513511511508509512511514510512514510511511512516515511503504512511518513513512511511515514510516513512512515516515511515513505511513515509505508505505512512516510516513512513515521514510514512511514515513512507502496508514521518512507516518512507508510515516510511507506507505508510512513512514511512516511512514511513511510502508511511515514515516521516519516509507510511510511507509509511511514515513513515512512512513511511513509505511513511510512508511513512514509508509509511507510511513514508510515508508508506504510520519519522520522513502505508504506512509512516515517516505505512516519515515517512508509517520512508510508510511514513511510515514510509508511513515512511514511509510511512510515513510512512512512517516509512517515511512513516511510515513511511511512513512512509506506507508510512510508513510508511513514513516517511504504510520522516518510507498510519519515518515511513510505504506512517516513510512511509510513514519519512514520517515511512514514514516513510514512508517515510512515515511511518514510510511513510512512509512508513512508511514515513513511514511510511511513510508504511514509507507512515511511515519512507512510515513513515513512507511508510511511518514512512511508505515517508509518515510512512505509513514518511507518515508513511512509509510514514512506504507515516515512512516510513515512515509513512513514516510512513510508508508512511511520512508514518515515512502501510512513515513508507513518514511514515515517515519516514512514508510511510513513512510513512510510510509514524515509508505509516517510511511512516513510512516516513512515512511510511517513507506515513512516512511512508504512507504510511512511518513511507514518512510509504514519515514510510511514512508509511513508508515513511510509509513511511513505513514511511512513522519507507513511509511510509512516511505509520519514509510512514516518518516516511517510512515508502505511511511514515509510511512512509513511516516521517511505505505512515515512513515517517512511518517514512505513510501503515515515511506511512508505518521515512516513512508499512509514509501507500509527532527521515511511515511511515513508514509509511514511512515508513514507511513505507518520518511504504510511512511507514519516515514507509508510511512513514514506508511514512512507508514515513513513510504515515514508506510510514511516509510510512508515515515516516515515514510509506510514509504509505514516521517512511508511511506507512510502504515519513517515515517513510508507506512514512511515513516516511515515514513510513513514519513511510510509511515509510514509513518513512515522515513516518515511508513511510508513515515516516515515519511510504504518519511515508501507506511513512516511516516514514516508507509514505508518512509514514514508497504519516519516511512506508508515516515511505502506509509515515510514516512512515512512513514515514513515512518516505506512511514515516512510510507507513515515518518512508510511511513511509511514515511511517515515510512510511508513514509503506517519511514516518513508509516519518511512515513509503506508514523516505509507503522526514513511509514515509510506509509514510509507506510512511514515512520521516510502505511511508506513517514513509509506509516518518515509510515512510513514513515512509514511511507512507502508510516520521509505512512507506514516504512516515511504505513513516516520517508506506512515515516513510508506507510511508517515513519517516517510506512517513508514516512520521511505505507508511520516508509507511512511514516511514513511515515513513511508508504507508511512514518509506513512510514515512511497500512513512522526521519510512513516511510514514513513518517512508509510512512515516515515511511508509508509509513515512508507509502508515516511510515508509517513511510514514510512514515516513513516523516509510516517514516515514514512513512511510511508507508514520519516514513504508509509508511515515508496504511514512514507510514516519512507504502509513520514506509514511504504511513514521516517513511510514517520521516512514515515513510511511510517516513511511510511507505511515513513513516513508510507512516512513515513512511512507511508503513516513513516518513510512517517515512507505512516510511512515515510516517515512505514520517517504505512515510513513515514512510515515513514515513513513516513511509508510518513516511509508510514517516510508509509510515519519514511507508512510507509508512515516516515510513511505508508514516516515513509502509511507509512519515509512512510513513512511512513513511510515517518514515503508514518512513513515515514502498515517511512509511513511507517524520511511507504510514519518513511504503517521515517513509512518514505502503510514511515518514512505503515512513505502516516513515512512519512511512514516513512510511516516515511510513512510512508511512510509511514512513515515513507511509510508511512516513513511512512509512511508509511516512510512514516518514509508510516518519516516508507513513513509508513516515511516512507515519511499504511513520513507514514505508510511511513515509500507512514512512508512513511508492501519526520516517511504509510515517507505511514518517519523516512507509511508507507511511512521520515513513514513509512512514517514514515513509512513512512513512510511513515519517515514510510511513514510504508509510507509513508506512519519518507507508506509518513511513516512511513516519519516510512516518519520516507504502510511507510512515513512513511509513516515512514516518519516512512506510513515513513512510513511510515510511511516513513517513509505512513508511513513511504511516515513511511512511516511510503505513510508508507509518523516515513508510514515517512508505513514510511514515518518511509509505498513512502511520518516510512511512511522520511512519515518511507508510513515509503504509515516514511512512507514516513511511513511513511511511509511513509512515513510511513514516514513512515513515511508510509516514514510512514514512513511504501508513516517512506514516512504514505510519512504522520514518513515515510511515504503508512511518515517511511516513505510511508513514515510511511511512515511514513514512508514515514518516517519514517512507505505504509506512513513513518517515516513514516516513511514514518515508511509510506507507511514512510517515511511507507508511517516510504511514515518515516513519516508504513512515514510512513511508514519516512509509514511514515515505507514512511510515514514512508513511507508509510510510513516514511510512513504510519513515514511510512512512515513515517517516513511511512519517518512502509513509508499508518519514508504509515513508510512516513513512512510516515520524514508512515517506501511510507511519518511513511510510512507509507508506508508505513516517513509498508514512511513515514511509510513513509511513511513515515515516515514512513514516511507510510510513511505512513516515513512510508504510514511513515512513515513513516516516515508509513511510512513515516511507508511510512514512513513508509510510511514518515515512511513511513515524519512505507516511508518511510509510510511512513504504510518517513507504506507515512513513514515517514511511515513511511510512513516514512512513509512513511514508506514514511510512509509509514515517510505506509508513518515518516508511512509512514511512513508510512510512522520523511507511514510505512515510515520519518513511510509510512519516509509510508510509511515518515507506512511514520516513511508510511509508501503501511515516517512509514518523520514513512510512515509508510513516516514513514511512512512511513512512512515509504510514512504507514514515513515517516515514510507510514514507508509511517511515518512513508506512521518513514508512512511510510512512511508507515516517515515505504508511515516510507508515514512511504502510516514513515510512509508512517515515513511509508514519521515511514512519517517513509508511509510515514515512510512514514515517519515518519512508508507504510507508509515512510511509512512512513512511515516512514512511508509509506511519511513518516519514511513507512508508508509512515515508509514520518510515518513515507501510518514512515512506509515517515513511514518512514519514503504507510512513517516516514511508504507512519516513511514512511508511512514513508513515513515513510504510513516513512512511514518514513514508512509508512511510507511508505506508510510513512508510517511500508512511512517522524520508504503498507521520511505508509512515518512508515515519517511502508516515513507504511511507512513515512510516513516517510510512518511515511514511511511510507513514512509513517516510515518519515512509508503506510511514518515514514515513515516515516513516509511510510509509512511510508508509511511508514513512515516519525518508504505508511519519522513508519519515515517511509504505508514512512515513510518516510504508512515510508513511508512522521508506511516501502506515510512518514514512514516515517512505508514511508506505512514503506508509505511512517511512512511512517517513513514514514511512515512511515516512515513514515512513513508509518518518515511510508504512517514510512505504503507513510508512522524515515505500510519518507507514512516517516510511513512514516511512516513507508511513513512516513513510513518519519519516510519516511511517512509514513511512512509513512519517512510507505509515512514513509508512513511510512514511514517515511512511511508515515512516511511514515511509513514511515514515514510508516515511508511513515513512510506508508508512510513512516514515520515513515512511508513510510514513512508510514506505505513518514519519519510511515512507512515515511514512511512509508511511513516511513511507510514513514513515515512513512516513511507512516516514510506511509505511519514512515511510516519517515511504506510515515510504507504508509509515515511515520523517509505511509513512510506504505516517511513511512513513511514519523510515512513513511507506501499510511513515513510515507513514512513507511515517512510515512513514512513510510512514514515517519518510512515516514508508515518521517512511513509511509508517520513516512503503508515519516509514513511514515512509505504507515515515512510511506510517510507509510514512516516517511507510516511506511512515515518511511514512506504511512508505515518514511507511509511513519508508519520519521519515516514511508502511514511515515517516515510509511511513514513515511510505507513512511514516513517513512513509521520512512507508503508513510511515516513506511512515514514515516509512512512512506508516517518514515509510519520512503498506509507507506508515513512510505501510519517515515514504510512510508512521516510510513516513513516517514514516517512509511517515517514512513515518513509507508514516513514509509512512510511514519511509510505514511513515521516512510509511510506511513520518512509505511518513513513515517515510505500508515510511512511506508508512510508509515516517519517512518516509507503504505512511514518517519515513510512516520521516515505503507514515511511509511518516510514515517515513508511515511513518517509505511502493508517518511512506508516512509516522510506510508509512511509510508511514518516514517515517511508499502507514522520512510516515515515510515514512513513511510514518511511514518518520518512508512506504506511516514514512509516509504508511511518515512511508512507510513512508511510511514515516513511506506504509517516513512515514512520519508504513517513513514513507510510512513510512516521512510515515513514506507508507513519513511517515510508503499510516511516520518513509516516516515517511516512513512514509508515517513504510514516513515512503510513512513505504512520518513511515517515516512510514515512511515517520513516516512510501503508511516510509513512510508516513516517516517515512510510514517519508501498501504518519506502508512517524520514511509505510515510513513511515514507507513519518517510504505511513506510515507508515512515513510512508510513518516511512515514511509513512512516511511511506508511510508512514516515511511511512513511511513511518515510510509514511513515515518518514511512513511516518515513505511512507507511513518518516516515506507510512513515511516517514504510517515512512504510516513508511512511513515515504511514511515511510510517517510508500496506509507513511503507513518519515516513512514511512508509516513514513509518509511512511510511513515512511510508512512515518514512516518511503511516511509509513511513512505511519516510504508513509512516515515513510505514521518515515513519517511514512511510503508508503508516516513512514507505515514515512511517515514506511508511515518520518515510512514513510505507510514516513514524520517514513515514511507512511512511511510511510511512507510511512514517511509511513517519517516516512498495507513512509513514509506505506512514516519518514515511505505508501504507508510518518513513506503512517516512514512515514508511512516517512510511509514516515518513513512509508515516519518519509504498507513520517517514512508507514515512514518516515513515507504505514515518519516515511512516508511511510508512513510502504509507512516518518514513514515518511516515506511515512512510512514516519517517517508509512509508504511513516515506506511512516516512508503508512512511511512514507506509513513516514504502507512515512512516514514512506515519514511517518514512518517516515510508502512517511511513509509514515511513515513510510513516511512514513512512513508506505512519523521515513515511512511511513514513517515509506512512510514513512512513521524521512507514524524520516513514511507506501505507510515512510514509506508509512511512511510511511512508512514511505504506514510515521519512512511510508511506507511512512515515511507509508507509512519521518506501508512514508509504505514517516516516511509512516512511513517508509524522511509508508511515514515514515516519515512512505511510513522521513515515504504503505515510507515513512511507510513513510510510506507512512506505504519519515515516517514512514517512513507509509507501510513515516515517513513511510518512509509512507508512519515513513511515513519516509509516522524525514511506496495507512518518517516519519517515508502504510512513511518515512514512514513515519521516511506509505508516514517511504504507507504504509510508504508508506506509507518520518515507507512516511512515509514516517515514515516517515513512512511512511521518512510518518521520515510516515510511508513512510508511511509509510515516515515518518510510511510519518506513514514511505510512507510511517513517515519516509511517514512507506509516517516520521511498504513513513513511513516513515513511507512513507507511515510509511516515515515501499505508506509514512513512511507508520516515514516513508501499505513521520521514512505502510515515522521512515507504508511508510505512509512517512510509514516515516506501502505516520520519512517514509512519518509509517521521517513513513515507501508516517510507507513513514518514511514514513508508513515516513515512511511508505511507512509508514508509511508514519515508512515517518511513514514511509508503513516519515513519520510506507516513511512511509509518523523521511512514504502504507509511508504506504508512512517523521517514510508504506507515519514515515512512510515515514514516512505508511508512517515514507507509513512511509511515516511512511514510507507503510507509509517523519513519521510504509508507511516520519516508511508505511511511508510506508503508517512513515517519519516505505510503508511521529519510515515512514512512510511514519520513509509502504512518518525516504510508505508513511513511514518512516512512516512517513511513516513515513513510512513513505503506507511510511520518516515516511508513512503504509511510517509509507513509513515516520509508508513508506512515519517509508507508512512514510505514517515522520514508505512514514514513513518518520513508512512515516516512510519521517519511507509503510511510511518515516515515515511503507509516518514512515512505509512511510515515510512518524517511510511504504506510511512512510510507508514513515508515518514509511509507508514513510508514516512507514512504501508510509507510514518516514515515507500504512518511512515519515516513512513512510511507505512516516514510517520526526520504502510515514510506507514511510511515515508513521517514513511508512515514510511515511505509515515513513515518516515515513511508504502508511511507510511512516514512515522514508515514516515513510510509512514515514512511513515516514511511511508511511507508511512515515511501508515517511514508511510509512515515516516511513508512511510515515513517510505509513513512507502507517521512514515514513515521517511511509512515517511510513512509507502510511515515515512508504503507515512508518517514519518514509504509512509505505509516516520516507508516514512517514511513514512514517519512504508507507518512512517514512511513513515515512513511509515515515521523521514515512507503503510511509507508507513519519515510511507513516509519511504504500513522516514510513512508508513516520515509511513512509507509511517518512512510512515518518516515514511511510516517513512510514517515515515512503504513516510508503509515512506504510515516513513505505511515515511510507511518516508504508512512507515515511511511512511508507511506510515516518516505504510509509520518518513505512511510511513512507509510515517513513509508511507515519514512515516512513514516512505499503508508504508511510510515515511511516515513506504511518521518514510517518516512510509511515523523522519524519519521517516510512515511510512512516516515514515516515518518514509504509509507507512514510515518515514517518512511515515516511509508514517514516512517511496499510512518518514510514519510508509508508516515511513515516512512511514513517513508504509510508514513509504510516516511511512515510507505515512509512511511511510511509510514515512512515508507506510519509505502508516505509510512514515512511513518516513513518513507513512508509513521518515512513510508507510514504505507510509508509512512511509510513510511515514514512519519511509512516518518509516516510508512512517518511503506513514513509509512511508513513510516514520518512513507507510515519514511507510508518513511513514512505505504514516519516515513506508509509502506512516517511511511504499517515512509510514518522522511510512513509508514513510510507513515512518519514511511513514512509508505515510510514513506503502506520521515513513512513513512511512509504509509515518513504509509515519514507510514518512510509511509511506506509510510511515515515508513510511516512509510506508507514518527520509513513511513512508511517518515514513515513510509518515512518515514512510505508514516515514508512515515514519506504511514510516519525518512509515512508502504515524519514519514508515512511513508511505507516523521512510510510512513505507512514512509506510517517512512515514508508510516515506508514514515523522517513511517513508511510510509507516516516512504506509509504512517511511511512514516520518510517518506504504509507513515514514511511513511509509508515513507508510512508515515519522519510509515512513512512510514511509514514513509504516528520506499505508510518520513507514516511505504510514516510517512505510508508517516513513512512510509507505512510510516521519511515514513509504510515518516515514510514509514517515514509511511515515508509510515507511510508513511509508512507515515512510510513513510517517517509506507515518513513507510505511515516515511508507508513518526522514502505504512512512517526518515512518518518509511516514515506504509515512516512513508507513510510510508508512514514517515511512514510508508507517515513510510511506502508518518514510515516515512515507506512512510512512512515509509506505505511513511507509515516512516511508504505508511507505510511515515515522513505508512514519518515508510515509507508512514516518517517520511510503512518517514513514513503505513516515511510509519520516510509515515509507509510510514516511512508504512511515514515509510516512505502507518524519517513513515516517512507507505504506513514517513509509508509513512515508505512516516514512514514510512515514514509508510509504511518520516513516515512510507512513510508507506511515517511508505514521521516513511513514510517518519521515513508508506509509506512518517513514513506504515519516516516513515519519515513516515508508515515517514513507510516514508499508519516513510510509510509508513520517517514511512508507512513514510510511505502506513517513512511506503512515515515515513510510516516514515513514510513511507510512512510512514512512512514512510510514513510511515509511516518521516510508510513514513513515510509510511511513517515514511511516516520511509511514519517511510509508508509519518511511513514512508506508519521519518517509502497497512511516514509508514517519515509507512513511509504506502508514516512516515512513517511511510512515516512512515517515512515515511511512513515518517511507511513512510510510508513511515514513509511511507504516518512508506501507510509510514518514510512514515510512513511508513513505507508507510510519521510504508513512514513512508508516520521517510511511508499512516515521523521515511511506508512511518515512510511511513515506499507519518515512513507511515515515515515507502504517517516510507507507511522518508513513513513513513511518517508509508500507514515503515521519513515513514516511510512510509506510515517515517516516511513518513513512511510511512515511506507515515510514512508510513514514510509511515515512509512513513513512509511511508511511510504512511517518511507512515513513511510512513506511510514508505513520521519511507508513512514513513515514509508507513513518519519519515506510513504497503515520511516518515508505503508509511509511512511510513517515509512510516519517514517514510514516518512513512517513506512513508509511514511513518516518511511517516516512510512513515514507509514514515513506503514513515515513512512511510511510514516519513512512510512508511511511509513510506504510517512512514517516512515515518514512511511512512505506510508510511510516519519516512514518513514515511503505509512513511506507508501514523520515516514515510512509514514513507502503511519517519513512515515509508507510512511516518519516515510510510513516513511507511510512513512512511513512513511512514517514512514508508511517517509506511516512512508508506509513510512515518516519517516509505510518515515515511508513516515511513512509510517517515518517517520506507513513511509506509510512508510509512518514503507511518513512514516514512513508500506513519520516515516507504515509512509515513512513505504511514515511512519519511511512512507506504510514515518518514517511513515512513513509510509512515513508507507505509511511513511517512507511513515513514515508513516512512511514510506511511518517516517508508509513513512510511513507512512510506509509510511509513515519512508511504512520519520515515516515513517506498505511512515520518519512513516509507511512515515511516512510512509506511514513515519515512512513513509505506515510512512512515515514512516507507511512516515513511512517517514517523523511508515514512505510517513511507503508510506511515520516512509505507511511514519516513510511509510509515513501501502511517513513516515508508510509513519519514511508508510514512513513511515515519515508507513509512514513505507511510514512513514512517519512512507507513521521516512507502511511511516516511507520517515515512508507506508508510518515512510504504510514514515515512514510506500508513514517519516511511512513513512510506503508515512515521518514502509511513506511518519515515517511508514518512505507510509511510514512510505504508515516516511513513510511513513516511512515510511506506513512504507514518524522520513512513518515510506508508514512504510510510513512512511511515517521518509510510509511513510508506509512514511510509513518517512508510512505508513508516512510520515513511519521514510510514513508511511512514516516516508498504509515513514512513513515511510513513515513508510508509517511511509514521518518509506512508506511519518513506505501505512515517507508511516512515514511512516516515515506509515518512512513514511506504506504501508505510514512506511513515511515517520518516515511510512510512512510510507502508518511509512515515519518515517514513508504509510508511513514517515516513515518516513508511513514519516515512508504503510517519515510509513511512516518522518506512512512515513510508512515515512515512512512511511519525519514511502497512513519512507511512510511512515513515515510521512508508512509510515515512510511515516512508512516514512510509498502511504510515510512509512512512514517522521517516499502512514518514512513513512509507508518521517509511512509513513502511516511509512510516516516514511508503507510513511511515514513515513510505509510511511515513515515517514512514513514512513511507510509509510511509511512509512517515515516511507511511511508509513514511519515512511507511511508513516514513516513512512513503504523519508502506510514512517513515514509508513512508507512512513514510511517520511506508512513511508516514516509504507517515511513515505506511511514516511513515507507512511515519519517516514508509513514512515514514518516516514513514514510507508511509509511515512511510511513519516514513511508507507508507516514516515514512517516513509503506511511507504504499505510513515517526524520516505510515516513511514512517514512507508510515522520514510511509504511514515511510504508519516509509519521516510509508516518515506505508506506512512519513515515509505506506515517518514508509513515518522518514514507505502510514514515513517514515513511509509510506510514518519513511509511511518516511510510508510510512509511511512515514515515517520513513511513510508517512512511506515513508508513511512516515507509513513511508513511511510511513514517514513508507514510511512510514519514514511516510505505508512510505504513511513515513515515512510511514515513516513510504506508514512511516516514513516513513515509506512517513509505513518518515511511515508512516516515515512511510511512511508509509509508515513515515515512508509512518513514514509505508508509513511512511515520519517510510509508511512511505510512512510513514512512511517513512520511510518516510511513517513508506511518520511504503505515519519519514518516509510516515513510506509516514511511511514514512512508505512513510508513511513510507509511508504513520522516520516516513512506502510513511512509513516518514512511514513510510509519520510507505507509513512512507508516520519512512512515510510512511511512512513516509512510510509512514513510507511508512513516514507508505511513511515512509508511515516515510512515515520516504509510509516516508507508511508514513513513505499502511515512514513511514511516515515512513510512516513511510512510515517518510512510508511513515517511504505514512512508508513512513513510509504508514512516514509513515515515515517518518508503505507513518521516507508508510514514515511508515515515510513511510512512514517519516514510512514514505505510519524520504502510513515514510513512506516516518513519514512510510500503518507506506511513514510506506513511513515513519518517515518512508513513518520521507503506510508510510513515512512508510515514517515518515513508507508511512513511513515511509511513508504509514514513517516511513516512511512513515511509512511506514524520512507501510515513518510503506504506507511519519513510515513512513512516513514516509509513513514512519519515512508506505509511511515518517511511514512507514520517509513516511509511514510508512515514508504512515514515520521517517520519518514510500505512516512512513511505509511513516514508505506509510509508514518515513512516516516512508508516521515510510512507511510511510512514513514515513509510511515517512507508510510515519521513510512510512513515516515507509512511513511510509507510513514514514518515512513508504511515514516512513510508514516514513513520516511515513514515515515515507508508510507509512507506510515515508508509508513516517508513513510507512512513513509514517518516511510505508519513509512511514511511512506509517519515514516515511510511509514514511509510511512512511512513516519515512510511506508511511512514510508510510513513514513512519515511505505508512510514519518516508508508507508511518519518521518519514504504506511515513511505514515520521517512510510511512511517513511512507512519510505504514513511511508506507518522521519515510512510503505512515513511508504513518516518519515511512510502507505505509512513508507510512513512515516519515512513513513515512511512508509512513515511514510516516518517515513512515518513510505505505513520520513509512516510507511514509514515506508515515513512510506511515508513515518522523520515510505501507509513510508512509513510508509510521517508508509512513510515512509508510512516512510510519510507516520521519517512506506507505508516515514507515515511510512512512514511510501504513511511514521521517514514508504511521521517513514512508509513507505510523518515511511507509511508509515515510502500510513512512515514514511513521517512507509509509511512523520514511510515516514513512512512515510511515513513512516516511514515512511511513510505507507512513516519519519519509510513515502501506519516514512513511511512508510515509506513518519519516509511513513513511514510510509515514518515515517514508505511513513514518514505507515520520514508514513509511507519521517507503509509503504511512510514517514518519512518520516511510509510516514516516513500504519516516514514514509511512509507513517519519517515506513515513514512511515515509505511514511504513512512510506506512515516518518510503501508518515514515508510518512509510512510512518519515513509516514516519515513510503510514515515512517519513507511510511515511513511507509505512515518521519518510508515518520516508504511512515514521516513512513514516517519519512510511518513516521521516516517518512512520531521512513520515508512518519516510506510512514519516514513516509513518514503510514519514510508515515518529524519514509515518521519515516515513517516510508515516518510511519518514510512508508516521512512509511510509510514509504508514511512519515511511517516512513511510513512509510516514515516520515508508509509513519519515519514513506505514509508514513517515519516517512514517520507508506507510510508514521518511510513511514507506512517515516518521514504506513514507511515515514506504508515522522513514512513514518518515502503507509512513511512516515515518514517520511510515513518515513515512511509508511510511507510520516512513511510515513509511515521519513509510509510511512513515515514513511509506505514513513519512511505507515515514512519506504512514514515520517518509506505504508512520517505511508510511513513512512510510513513508510508504505508508513509504516518511500507522514508515518517512505512514514516517517508510515513511515512509517519514512506508510510507513508516514515516513513513512512512510510513514513509504509509513512514513514517510506508510510511518522516513518519516513515510511515524524523525519511507510512513511520525520515514514523522519502497504516519515512516513515511512518509504514518515517519523515515513504508508511508510507512512515511510515512506510512517518512514509498505515516515517516509502500508507514515515519517515508509508505509516516508509507507517518507516519509512509511518519516515519518512505501507506513524523511516518513511511515512511511510515515516515504504506516517518515514518513511512507501503506517519523522522517509520516501504512516518520521517516516518519518515512519518522519526525519516507509516516517519520518519510511507505509512511510504512518506500504505509514513509505511520516515512510509511511510511508507502508516512512509511515511510510513510510510512513512511510510512509508516513512508511510505506504505511523512508505511515512510508510515508503501506509508509519519508503508511508514510500505509510512510504508510506508511513512513514515505498503501511512511512507512510512511508504519523519512506499507508513519513508506504508508511517512510507509508510509511508508509510511507508508509509512511514519523516508515512506511512506509511512517514513511503508514510508514511512517513510511511510506511511501507509509506511520509509513511513519516516519515504504515514515515513510504512516517508504512511517515509504506511513512511512514519519517513511509508508511515518514511510511511504503511509506509515516514510506510506504509514512506507508506513515512512512511514520521511507503499503511513512510506507512513513515509507507504511513514518513504502509514512510512516512515517519511512514515514520514509515512514506501508513512509503505509506508512516515517511509510512514517508508511515523521519515511504507513512515513510516515512509504508511512508508510509515513511507510512508518517514517515519519515514509506507507513509513515513511516515511513513512506508510514510505513516519520519509511520519510506511506508511516511506513514515516515511516517515512505508511512515514511510508512512510507504515518516520512508501505508508516516517512507510512513513512508513515515517513509511514510510509505512509504514518514510512512517516515511506507506499511515513507508512515513518520515512515513509513518514512512507508509511505508507508514518514513515513510513507511514511508509514516511509510505512518517516513520517514515515509509507509513516513512511509512516513510513514510517512510509515518513511518518512514508511515513515512503505509509510509518521512509512515511512514508515520524507506511511507505511512515514515512510497506513511509515516512508505512511510514511512515512509510513512513511508508511515515511509512515518516511508506513515515513512509510513514512515515515515505507508508514515513512512513515515513507511516519519515515522515509510518508504511515514512517506505501512513516520519521511508509510508501507524521524518508508514508509512517518512507508513512515511514510505505509512516514512508509511515516512512511506508509512516518517512512513506512510511516517510508510510510512511513515511514515516514511508508513512513514514512509510507507509515513504505508508509515511511517516509512505510514513512510516517515508511510509509507512517522519512505508507512515515517510512515518516514516515512514515510508511514512512515517512512510509506510507509512516515518518515514511504503511512513512511509504508508508511515527521515514518505504509509508514516514508505505510519515515515519517515507503511517512511518518512512508509515517515516510505508515518511504503500502507512516512508514512512512522522514514512516517517505503510512509508511515520521512513522519513515510504506506506509505510515512508511515522515511512513514512503500511512505510517513509510510515518515512515519515505508512516511508508507509508511510513510507513515524517514507509513510503509511510509515513506508519509511514515512513514506504507510517516515511509510511513512518514511508509510512511513520521512512508505510509505508511514516521522506504509505509511510508510512512511513517515515516517515507510515515514515516512506508508512515510504499506511512517518510509509508516515508512511509516523527521518505505506513514513508511515516518514510511508512512516512513511511510512516512507504509515515509504500510518519516514513508508505504511515512516515516510512515512508508513517511511511512512511514513512507512515515511510511513512513509517518517515510510513518515508506511508513511512514519512513510508515514507510511517516516516507504509509506511515509507513509506508511511514516516511515517513519518513506511512510508507507514514517515514515510506504506513515508502507517514506506508509516515512506504507514520515512512515519512511511517517514512512513517517518516519511511517515508508506504513516515508509510514518519510513507506514515515516519510511512506508512515511512519512515510510508503508505507513509504504507510508509514519523521516512511510511514519519515508504507509515515515519519513511512511508511513515511509508512511512515510512505508515511510510514512512515518515508512509510508509517510513514511516518519513509504505509509503505511521517515514509514517515515511508511509510511510511510508511512514513515512508514514511514515514512513508511510515515508509510513513511511517518512505507515516513511514515512509510510515516514513513516518513513512512511512513518515512508509508514514513511512511513512514513513505515515510511513511509511511509508508516519512510512511516515511513516515507504514511503503515520513509510514515514513512510511512513512509511513513512510506513512511511510511511512512510510506513513510511512512514518517511512514512510512514512511513518518514512512510511511509513514520511510506503508511510511510510514512511512510510512516516511512515514510508510510516514512515506508504508511510512514515512512514511514512511510508514517508508507510519522523526517513513513513517518518515515511506504515514520516514512518513511510510512513506508511511511507507508513513513515513510508512505509513510508508508511511510507506506511514515516515513513514513512510510511511508510511510508510515517513510511513512512509509512514514512508509512510510512512516512502508517515517513515513516515519507510508509504505507515519520516515506500506514511507511514513514511515514513514514516515512512517515513503506513517511507506510513514513513512513515515513513513513513512512511512513515513511507508514518512512514515515518518511514515514518513515520516512508503500502508515515520520518517513509505509513511511512514513509511507512512515516513513513513511515510510512512508508514516512507509507511510511515516512516516511509516514510508505507508511516522517514518514514508506504501504512515513508503513516512511510512514513511511509511511515515513508505506504500506513515514518517519518517515515512514511512512508507510512515512509511515516512512513515510504514515511510511508508508513515515518515515517513510507512508511513512509511510510512511516515510511514515515516518517513511511515511508512513505504507513513509512510514514512514512508511509510507513518516511508510512515519505504511510514512513513511507512515513518519516515515510512516518513509513519517518513516515513512517515512515513513515512511512510513508508512510512513511513513512514508510514512511517515512513517510509506504503512513510513514516513513519516510517512513513510508509511519516519513507503507512514512507501504509508511521516506511512514512514513511509507512516508513512510508506513512509508507512512511514512510512513519528524505496503514510505510514515511512512515515516515513512508510515507507510506505510515515518510514518518511516513502505520523511509510511506508518514509515512507508514520514499506511512516517514513512512507508511514512512515515515512513512513508507512515512511511512516506506513510511507512518522513510510513505512518514514518515512516513513515513513513506511512515516512508509516512510507510510519517523517503502515523519516518510513515517512499507510511513513511505508518521516511508509511508507514513507510504504508513515514515514515511511510506504507508510519518510507513511513516511509512512512517516513513513512506513516516505512508512515519518512508511515518519512508503512514514513513510510502507507509508516514516517518514513500508517518511510516507505506504502513522533522516509506510511510510510509515515514517516515516515513515510511512512511513508515511511511511507507517515514518511511508506514515511512511512512514512511512515515513513511515515513510506510512512514512517513510513509510512512508508510512516516515516512509507508510508511508512516515513509503512521513512513516510510514517513513511498509511511516509518520514512510508508513523521514511509504507509508515517518518513504507512509510512508514512514509509513511512512512513512515513512515510505509513513515513512515512510511511507507515513510509509511514512515515510509507509507507508511511511513512511507509508512510507508506509512513511512513511509513512512513513515515513511512512512512514515515512515511512512512517517517514512511508506510514518520518511511512509508514518513509514516512512510513514509502511511504505509514515516519516514511510516522513511514514507507508512509507515518518514511515514515512509509515513508508507507512515514512513511510510508514513510513516513508513512514513515516512508512515513512512511511510511511512511511511513509508511511516516515519515512513512510510514512508511517510507512514512514515523521515504496503518522514502509516518520520513502507506505507510520512511513513517512511506512511510512514512511512518517518513515513512516513513517510512513511515508499504511512515512508507506511514515514511513511508508509509509513512513515513507513520518512510510512508511515512511511511509512515514517518515515515515513510511511511511513512513512509506512510513515514511512510512512513520516514506504501502510518513515515518515511509507513514508507521516528566580588588577570555546537527519510508507499486474478478492501497488477480497500498498495500502500499501503504507504500502507515514511507505506509508505506513512510511511508510507509504503509510511515514514517516512510512513512511515513514511512515516513513512510508508509509510513513512512511510510509506507514513507505506508512511509510513511506508505502508507512516510508513514505513522518515514515517514511510506509513510507506509513514512512515511509516517512511513512512518516506505512513509505504511513515512508508512515514511510508504508515512512516517516514512513514515511512511513511509512516509504508515518516516514518520520521516510509509513520514512516519514514513507511515515511513516517511509507512513513509509505510508509514517518513507505506512504507508516508506509510508509513510510511516515512510513506511515518518519510515518519513508502506513518513515515515509512512507507508506501502511507508514517514507502504516512512514510512516517511512514507504507511519518512510511515519515512512509510512515513509509514513515515517515510511517516512508510511516517512506509514513513513513513515513513512511509507512509509511513511511515516515514509514514516517507516518512515515508505510511514519521517512508511513508513513512513514515513513515513512512510511512516515515511514511506513515517515511512512512515519521521516515511513516516515518518516515509509507511522522513508512515518514514508512511509509512505513512507509510510508511510511513516514515515511513512512510512511511512509508507510513508510508513516519515515515510511509503496499507511511512513511510505512506508514512512512514513512513513514512511510507509511516514512508506510512514512513512515513513513511512511511514511512514514510513515515512514512514509504508508510518519514509516516511510511520518514517514514507510507508509516515510510513519516510512509511513510511508509511515515512515515517514512510509512514512514514516510509508513515512505505512516515515516508505507515521518513511516513510513515511518510508509509504511510513510506508510513512511510512512513513513513516513511513514516511512517515512514515513515515511513511512513514512512511509513511507510510509511511510508510513514512511512511513509511516518515513512514511501502516515518510503506511513508507511510518517513511513513511507511512510513517515515512510508513511508514515509511514512512512513511512512507505515511515510511515509507510514516513512508499509515516518515512511515513515515514508509513516521517513513516512511510508509506508511512511511511511511510511508511508510509513513516514508503501508516513511508509510512510512510515511510511512511512512512505504512517514510510506510515512506511518513510508511517511516519517513513511508512512512509512512510509511511512514508509515516513513514513513514516516519516509502504511513510515517516516511506510507514520514518527516507510512510512518511511517515511512511512513515514511511511511510512515517513515514510512512511515512513512513511515515513513517511511512511509508508508506509512511510512505506505511515517519515515511508520521509505515516512511514511511512508508512512517511508511511511511512512511512518519515516515518516519520522521515514516516518519518506504499499509515515518516516519518515513514509510513510505509507506511512510510512511512516513513512514510510513511509511508511512510512513512510513517516511515515510506509512506511516511504506512517514501509518518517512515511516516513508510502504510511513509511512513510513513512518514512513514513512513510509508511510510512512512508508510511509510509511512512514512508512513514516511512515512509515515509510512510508512510508511509513517515513512516516517516512512515516516511512506508512518518512513508500507515513519514504504505511509509509515512507512515514512512513512516516515515518515511515512513511510509511519519512511506510510510510511512510507511514512507506508508512511511511514510511509514510507510511515515513514513514514512512510514517519513512512515514515515512513512508508511513515514510510512516512512515512510513510512515511507511511510513512510504511515516512509511513501505516521519511514513512506507510512515511513518516511509516510504508515510512513507506511511508508509508512512508508511511511511512514516513515517513513515514514510510514517516512514517515515511512513511511510510511513511512513512514518515514513509505511509506512513514516518519515510513513508505515516515517515510511510511512515517511505503512519515505504515519518514509514517515515514513510511508509509513511511513515512511513512514515515513514516513514510506505506519520510507509510509512514513510511513510510511511511512513513513509508508513512515516514517512511511508514516515509512513513515516512512513505508509513513511513511512511511511509514512512510508510511511508512507509505509507510511518523516513521515511509504504511517518512512515516512515516508514517516516517515513513512512511510513515516514515518507508510511516512509507508512513510508509510511511511510512512511510508510511510513508507508513507504504505512514512511513511508511509510509513511511513516513515513516511511511509511516520513508508511517520516515508510519519514511514512514513509515513506514514510511510504510508510512514512512504516520514512513515509510510510509512515515513515513508505508508511513510512512512512512511512512512510512510515517508512512516519517516516517513509506504506505504512511512513516515515514512509510511509510508511515514515511511511513510510513516513508512526524519513512512511513508511504501510510510511514514511512512514512515508507510510511511510514513513512510513513516516509509510513511511511511512510511510511512514511505508513515513516515513516512512515508502507508511511510511511513515515518514513514514514513513516512513507506514511512511512512511512515514511510516515514515516516512510508507504508516519520517515512510516510509513515507509515509505511515513513518520517509515515514512511512511510511514514512515511512512513512512512512510510509511512508511512513512512512512514512514513511510513513510514512512511509508512512511511511514512511513511511508508511510515514509508512511508508510512513514517516517513516515514515512508509507511512515512511514515513517522518512512516519514507506512513519524523520515511512512509511515510506508505504511517512513512511513513511513513515510509510513510509515519516516515508511507510512510518518513509508506500504517518518520521517516512511508509510510512512514515512512513512509509504506508512511509511512514512515512514511511513513513513512512516511511513510510514511510510513514515513512510508502508516516513510509509507504509512513512511512507513512512513509510511510509510512510516516514516514511518520513508509508511512513515517517514510510509508512519520518512512515510507505512509507508509512517516519515514514514513512514516514515519518514513511510510508512512515514513514511508511509511510512516514511512512511511512510508512513514510508512511513516514515515511505510513513510503506512512515523524522520515513507502507511510510504508517519512514517513508505513520515508504509510511510507504511514515510510510510511510513513513511506508511511512512513509510510514515515512513513514511510512510512512512512511506510510510510512511510509511512517518520516515512513513512510512512511510510515515514514515515513516507512518513512513509513512509512512514514514512511514512510507508508507507508510509511512510513515514513515514512507510511514511512511511512508509510511513513512512512515512509513511513509511508507508511511512513512513510513515515517514514515514515511511508513515511516512513513508510513515512511517515512510510505502509513508511507508513519518519517514513513514513516518516515513513512509509509510511510510510509512511510513512507506512515514518517514510512514514515512511515514512512514514512512511508510510511517518518511507510510509513511514517512510511512513512512512511511516515514509512515511511514512514511514512504511518516511514516513512513511512511512510508508509508513514516514512511515513508509511507511511510512511510510510509509507511511515515515514515508511513512515514516512506504509515519515512513517512509506513513514514514512507511512513511517517513508515516515511510511509510509510509510511512510509513513516513511515518517515513513515512512515514514515516515512511511510511512509507505509511511511508509513511510506511512513512516517514513514513511509510512512511510511504509510508510511513513513517517510508509510508500502512519514513522519518521519512510514515514512505504511514513518511508514519518513515517518509508514512513509508514516514511508510514510507513510510516516514513515512514513510511505502510512508510512512514511515514516515511516512516513510510513511511511509509511519512511510512510510509510515516513514512508507509510512512513511514514513512511509511512515512511510512513512510510508516516517515513508508513510507506502508513521526513510508506515519518514512509509512513513517515513516512517508510510509512509512513513509513516516516514507508511512512511513514511513515518513510514513512513514514512513513513512512510514514513512510508510510514515513510515512509508509505510510509511512517519517512512513515512510507506512508499511519519516513512514515514511512514512514513512512518517515511505505507506509520513509519514510507501511515512513513518517511512507512514511515511511516515510508508513516512510514511510508511513511513515511510510515512512509512508511509507508512515517511512511514516516512512514513511511514509510513511514511508510509509509512508511515513512512508509511510512514512510512515515515519515512512515506504505515521519516518515514509507512515515518518508508510512519519514505513514518510504508511512516517516512511511508503510511508510509508512515512510513511510510516511509509513513512511516517517513510514514513515513515514514511507510513515515510514513510511513510511509509512513513511511509517516513508511505511524519512516511504507513517515517516513513514511510509514515515514512508506510511510512510508512521518517516513510512510505508509506512506506511512512514518518511508505512516512509510513513511516512512514510513516516515512514514512508510508505506512516515514510511508510515515516516511508512505508514510507519516506509507515515510513518517511511507504505515516513513508508511515511515511506512514514519522518514517517512511511508509515512509507509510509515516512516514512508503504513516514508512509511508509511512516515511513515517511515512511513514513510509510509511515519520515515515514513512506511510507507509510515516512512515513505508512511508510508508512513512508510510514517511509509515513512512515508509505513514512514512508511517515515512513512511508509516517519510511512514514509507512512514512511515516514512509515512512503509515514512509510512509517514513511511510510518514510509510507512517515517511507513513514513511511509515520514509507513515512511511512513510510517509507510514513512512513518512509508507511512511511512516520520522506504510508512510509509508508511516516514512510513513514505509509508507512516516514511512513514507506514515513513512515515517515519517511510508502509519526518509507504508509510520515509511513506504505506503506516512508512507509512515516517514513513516515513515513512513512512512511508512513510511511512513512515515509513513510514511510514516514513508507515515513514511507507508508513517514515513512512509511511513516518515508514514515515511510510513511511501507518516512512512512511512513512511515515518515507515518515510519518507501502510516515515516517516519513512512512507508513511512511512508512515519519516513508513514511509510509509511508508510508509512515512508509508512511512508508507512512509510510509503508511516517514513515514509516514510509498509515511513513514515512510514513514515514516518509507518519513509512514514515511513509508518518516516518515517517504503509511510513512514510509514517513514512510510510511508508511514514515516514513512515513517510508507507511508509513514516514514510511514512505510516515513514513515515511511508512508508513514510512515512515518513514515514511510508513515511509510508509509513512509510504507512520521515518513513507510513514513510511504499507508515516518518513512512506507511514511507504509509511510511516516518514515515514515511516517512510512510506508510512511510512512512512510507512512511513512511508506511512510514513514513513511508514515508510516517515515511510514507512512511508511514519516519522510501504513510507499504504504507515520518510514511512513511514518514515518516515514511510510506516515510512513517518511506511514513514514516516511506505509508508511515515516516513514509509512511515513512508499506511511512510510511511513511512517521519517515511512510510508510511514515513508512509514515518516512514513511511512510508511510510510513512514514514512515514515516511513514512513512512512512511512513513512514511512513511509508510511512511511511514513513512510513515516512510508511509510512515515515515513512507510513510517514515504496507515516520517505510518520515506509510510510512511513517515514513510512515512511513513510507511511508509514516511510512515513512509509513510510509510513516514518516513508510512512513511508510510514513512512515510505510508504510511517515515514512511511514513512512506510514513515512511513516511508513513509506507515515512509511510513512504503508512516514516510507510516515512508505509514518520514513513517515515516515508503509518517513511512508508515517514512517518515516515511512515511510514518517511510507509511515518515513500502511516516511506505505508508508506510511509516516516512510513509508514516511511509511516514515514510510510513514515518515517519519516514513517518513505508513511515518522513502509512507509515519514509506502510512510512517512510514514511509513515513512511513508509509511513515518514513510508515515513513513509510513511511510515512509513517512510512513510513518513511516518516508508510509517511508510506500509508511512515517515513512515515511512512511509509511515517509504508507512518514514516513512511502510510507499509511512515508512518521516516516518519516512511511513512516519509511509509510508511514513514513510511511515511511505506508514514515521517510507514516519515510507508514510508506514516515519514511513510512511511509511510506514519516514513511501503511515515516513509513511510511513519512512507507506514511512516518515510515513511515513518514511507509515519513511507506504512512509511506504511518516515513517511510513512510513515514516512515512510516513512509510512508512512512514515512514517510512515515514513513515513513511511507507511510509511515517518513509503514512509515515513509506512505507508508509511515514514509510515508506509514512515519518519514507508511508510512512514515513508512517511511509510508503507510510514516518504508515513515513511512519518517518514512510513515515515517515510509511513518517517509508507505511511511510512517516515515513513509508513508507515518516514513508511513514513511511512514506510515516513509511511513513512514510506509510512514516513509515515516512509510508515508508505505507508508509505510511510513512514515510512514525520519510507505514518508505508514512512508508516517513512513514510512512510513516511511514511515515515511514516518514512512515515513510508509514513511513514515514514516514510511507508508507509512508507510515517512512517516510512508509510513511517509508510511515515509513512512519516511511513509513514516518513511506509502498503511510514520516512509508514513516514515511508506512512510509514510511510507511511511513518516511513515510507505505508511515518518511512514513515514512510511512510506511510513515517515511514512512516515511507517516514513513511510512512515511510510513512514514510511510510512510513513515516512509510509508512513513512511512511514511506509514513513512504512515506515519517513513516514513506510518518512510513512514519511510510510505507506509512512511510511509513515513515516504509517514509504510512519522514512512512509512513513513510511512511510510511512513512510513512513513510512516519514513512516514511509513510513513513513512512513512515514512513511511511511508509511514513511507512512513515512513513512512513505507512514515506502504508514524519512508507505508510514510516516517516509508513517511514520517512508515515519516510510507506509510511508510513510510509508510514514513514512512509510511510512513511514513510513510507510512508510509511515513512512513512509509512513516517520515516517509511512512511512514517513510513515513513515512514515513513512512515516515514515511513502504515516516516514508506503508514515514512511514512511511512509510512513508519516511511511512507508505514517510504510513511510512513512510510510515513509512511510510503511513512510515517514517515514517517515514512515513517514513511508507506509512514514511514516515513513513513512513509507507512513510510515514515509511520515511512513514513515516512510513510508511515518507502507502510516514512512517518510508505505506510512509513514515515511511511522519521513508512511513510512511513510510512512514515515512512511513515517513510511510510513516515510511508508510509511512510510510511512512510504510511513511511516515512512514510511512511513511511512510515516513515513514512506515514514516514513512512513509509511512514515512510512511514519516512518518513510503509513511510507509511512511512515510499511510511515518514518518507500506511513520515511513515513511508510509511508512510515517511517518510505508516511514513516512512512512514509508508513509508510515513512509511510511512512509507511509509508513516518513511510511514511511515514516518516513511509512515515514512512508507512514515512515514514510512512512507509515511511513518519522517511499502512503502513521524522521524514512513497501516520512509509508513517518516516512511512511505511514513513508512512512516512514514513511511514511512512510508511513513512514511512513513510510512512508512511512512511510516517515514511513508510509513510510511510512514513516518511512510504505508514516513514513511513512511514521511508514517511506511508505505515517512502508518516513511516515512510505506514512512513514512512515521524508509512511511513512513511510509514515509508507509512511512512516514518516511512510510508513512510505508514515515515514516513509509510511510513514512510513512512513512516515516514513514512511507511515516513514511509511510512509511509511510510512514511511512515516510510512514513517515519519512504504516518514506501512519513516513507510511517513512514516512509504512514506515513507506509515520516513512507510515513515508508505508513511513513514515518510511516515516515515515508508512510512515516512510511513511513516511511511512514516517512510512511508512509510512512512511510510512513510512514512517513513510510507509512513513511510513511510510513514508511512508507506510513517518514511510512512510509508515515515522517511509517517513507504504511513516516513514516512508503512515514511502503511512516511508511512505501508511517518516518514510513516514514515515513515511513521515510511513512508508511513512511511511512512512512512511513515511508512509510513515513513519516515512512512511512513512509513509510513513513514515516515514511514513512512515514513510505508517513513507514515514513513508510511514512509504511509510507504506511519520520515513513509509511510513518516511515519515515515512515515514511511512508508511510513509505505511511515518511513514509508513516513505510506504506512513515513510512511515515515511508509507511515515518515511508508511511515519512507507510509508516516518516511509509515513511511511514514510510512517515515519514512515508515509508504504508510513519517513512511514514515513515514514514508508507509511514518515515511511509507512516513514510511512510508508510513512509514516513512516519518517515514506509512507513512515516511514512510510510511512515516515513511512512511514510510510508507510511513513510508509512512511512513514513514503507514508508517525513515519518516513511508508505509511516517518511499509513507507516519513512508511515514512515516514510508508514514513510509511511503513519516507508506513514515510510513513511512506507513514513514512507510515519519518514513511510516514514511513518511509511511507508512514513512514514515517508507517515511510503501511524519515511511505504513517512511516513512516517512512513517511508511514513511506508510513516512508504510518516515511508510510508511513511505512513511511505511513513514512517515516519517511508511515511513513513510510512511515512508511512508515518515516518516508503504515516515514513510517517511510511510507503508513514513524513506510514515517516507504509512509509518518517519511509514515513512511513513513509509515520518515513514511512514514512509510508513513515518512511511511508510517518513511505504505506510508507508512511511510516512513504510512511512510513515516511504507515518514515509512515515513512512511514511512512508511512511513518513513508510516518516511513507511510510508510510508511512508511513513516519515511511513510513512509508505507513512516520511511511518514513519516511507516515505513515513511512507502508518523513508507510508514513512509510510518515513514518513514515509510509514513515514517513509507510514514512512510512509508511509511518510507513514519523520514513511507499511514511510515513515511514512510511509509510510518516514512507509511519514513516512506508515520521513512513510511505507512508506508513518518512512514511510513510503512509513509505513513516513511514517512513511511516517514511510503508507513514511511512511511512514511514510510513519516515515508512510512510503509508512515515514514513508510515511511510510513521523518514512511500507514518521518513509510511514515511509508514518514511510510513510512515515515508507513515514512513512510511514515518513505507513517517513515518521512500503511513508510510510515513511507514516519516511513511519521515506500501501509515514518516513506505505509515519515512507517519513508509511517520517512511511513512514519516511508505505509509505505513519514512512509512515510509507506501510511511511510513515512509510517518512504508511512516513512516516513510510518519512510515516508510514516518514513517513512508503510512515516517512513508506510510513513509507506506509514511510510513512515513512512514514516513512512511512515513514513512511513513511510509511512516517514512515513507506504505518519516519513509506509517519516511507510515516513507512513512514513507502498507518521520516515515509509515513510515512509510509514522521515512519516508497507511510514519516515502505511519516511504508511515514511510513515515513514516515510510512511513512510508510513511509511511514513515512510511512512510511510512514514513513508507510514517511507507508511512521518510512512514512515519512510508512508513514512510507511508511509512513513513511511516512518518510509510507508513512507511518518518515508508513513511508512510514521513508507507511514515519516512511516518514505507513515509507510509509513509510512514513513513518519518514512512514513514512509506504512510507513513513511511512513514516513515514515516514512515514513508511509511509511514511512512514516513512512509506512516519512509512512512509511511507503506509515518512504512518512511511510512511502509519519516515508509509505509517521519513513515513510512512511511512517516515512509512517513514511509505518518511509504512513514512512512515516512510508509512510510510511513516516514513510512515515513512510512513514515511509509510511514513512510511513513515511512512517518516513512512513510512512514515508510515514510507512515513515512513514511512508508510512519517510507510509508511513514515515510510512512511504507512512517518514513510507513516513513515510510512510511510511511512515515512515514513509509508510516519523521511505499505514514512515510511511514519519516513510511513511511514513514513514513515510510508511514514515515513509509510515513516515516508507508512513512510510516513508507509510511510511512510511513517511509504511515515513514514515511509510509507512514511516520519513517512502515518510508508509509510507513509506505511516522519514511513514511512512509510511508511510513515515510513513512515510512511514515513511511509513507509515513511511515513513512514513511512512515514508507511511510510510510512519516511514516513511511512512514511509510508512516515516515516515513510513515517515513516516517512511507508516519511510508508512508504510519514514514513511509503506511513512512512512512515514511508501504511517516516515511503510513512514514513512512507515517517508513510514511512512513519515515512510507504512512511509515516514509507508506504508511512512511511515514518521518515515508510510507514520518513514510513511510514510509510512511508513512511510508508508512518515514508511517513511512509513516515514513512518513513507507515514513508511511511517515514511514512509508504511514519510508510509507509513513514517517518520513508510506507513516515511510514514512508507515519519517512510508511510513510513512511512518517518520517510508513514509505505513511507511518517511510507509512515513512511513516511514514511508508513509511508508513510511515511512513513514508515515514515518511513515517515506499512512514512517515511516517507509510510513508509511512515508509516520518512504499498509512514516515513509505507511508510512513517519514509511511514513513515515514510511503508518518516506505511512518515516514509508512516521513507505511509510512514516514513513518514507514514514509511511512512514519516514511512511503507509511507508515514508511512513509515515513511507515521519517515513508512513511511512515512513513512510505511512505512517518513512513514514514510508509512513513511511514518521514505509510504505510513507511516515516515514514511508515517515511512512511508510511509508505510512512513513513513513514519518511508511510510515509508508510512514515507509513516515512513515514507504511515514511512504504514513511519523518514513517513514512515516512508511512518512515509506515517515513511512512510512512511509513512504513513511511514516514518515515512516513515509508509510511509511501503510510513515512510509511514514512516517516513510504511505501506511516513518519511510511510510515515515515510505503507512514516514513514509512511511512512512512511512512515513509511511510513517514515517514510508513512516515515512508511506510510510513510512511513512511510513515514514514514508502512512518519513510504509509510511523518513505505510512514510513514515511507508512514516519519517509511516511512511507509512515512514515513512513516514511512511515511507506507506511512517516511514514515515513513511510515512514513507503508509513513516513513513516515508508511513516514513510509506506508506509510515523518512512514511512515517509510514511507508511512514513513517515509512519519515511514519520516508504512515515509505507509511508513508510515516520522516509508509511517513513511510511514514510515511509512516513512510515513507507510509512513515514510507508510513510509511511512510510512514512514512509513514514512513513515515518515515513513511510511511513515515513513513510509509511508509512513509509510510512519518518512508504513513509509515517511502510521516517517516513512509508508507510509511512512511508513514511510508508513511511517515514515520516512510510507505518518516513510506505511514513508512510510512511510512513511510512508511513515515510509508509515512516516516515516514511512513512514513513507512512509510514512516512510511512511512513513514516516513511511514512507512519521514512507508519520514513511506512517510511513516515504502513514519514516516506504515516509505511516513508503509515514508509511508507512514516514512512510508512513515512514515515516515510509510511515514513513506505507512509511515511514515513511508510511514516511506511514514513511511513509510516516515511510515512511513513512513511510511512511510509509507509521523523516514509515515517513506502500506508512515514513512511513508503506501511519518511524523511506511513511514513512514517518513510500508510514511508510511510519519516509513513512516515515510508505507510511512516514511511513509509513519519510510511512508508512506504508513512515512512513513514518514515515514511511508510514509512509512511515513504510518512510513513512516511512510515512509509510510512511516514515518514511512516511512516508510512512511511518518514508507506515516515519515507508511511510514517512511513512516515515509507511508510513518518514513508510510510510512513513511512512516515512513510515512515511516515515513508508511512508512512510512514515517514510508506511514512512509518515514513513515511512512514517508507512513512513512510511512508504507511513515514512511510510511515511507515516515512506509515519512502513514508507515520513511509508513517518516511509503504505513518517515514513515517518515513508511510508504505513512516520515513508510518517516511510513513510511508511514511513512512505505511515513511512512508510513514509502507507512515514513513512514513513518518516510514514512509512518516514512511508515513515513516515510510509512508508508510510511511513514512512516518518513508507509514513511510506508515510512514511511511515510513513512510508508513511513509513514511510510517521515513517519513507508511512517514507508509509504507507514519524517511512512497504511509510515512511512512509510511513515517516515514516512511512510512508513514509511508509515517516515515518515511513509512510512511511508509511509515513513511513512513509510511509511512511511511512511513511512517515511511512513509511515516515514516511508510510510510512512509512512514511511512512519516508504508512513516513512512513514514512511510509512515514512510512512508508514515511504508507512511512513512511510509515512518515512513515514515511512514514515517510516517513509510507510505503510512510513515518517519518512510516515514514511515513510512515516514511504504505511508514515513513515515514510504507510518516508515515514512516514503512526518510512512505503503507515516508511510508511517513512514510509512517517515510504508519517515512514510508508511510510511517514511510512512515511514513515512513512508509512514511511514516508510518512514511510509507512514513512513510513513513515513515517512516512512508512511508512512506508510515513513512515515513511508510510512519515513504508504515524526519509505503500514516512514510503500510508513516518512514512510510513516515511511516513518518510510513510505510514515514510510515509508510508508512509512515515514515513512516510499512516510513514519515515510509514513513514508514516512513509511512512513511514515513514515508509508507511514511506510516519513507509507511516517517513510501508515514512508507514514516513512519516512514513523520516508512512512514513508509514516514509509509507513515515512502504513516518516504505507513516513514511507511512510508517516512509510514516513512513516513513516517517513511510515516516512509510510514506507512510512513516516507510511514515515512510508505508514514517515512511512512515512513510512509509515513511512512513513517515512510513512511514514509509512514511513515514512515515515508511517516509504504509513507511512510506508513512512511508513514515513516514512516513519514509504508507511512513510510511515509508513514515515511508511512510511510509512514511511516517518516511509509508511512512513512512505510513515511512517511512512513511509507508511512512514510508509508510516513514516515516512511512512510516512512512509511513519515515513510508510507511510506514515511507513513515517513516509505510512516511521521513513512511513513515513510511505507513511514512509509512514511512513512511514511510506507509514513515515511512514508509512511518514518508512510509510508511511518518512512512515511515514513508511510507511515516513516508509513515514510508512518515512507511514512508510511514512508512516515516517514512512509500496504507512512513515511513513507515521519514514514513512511509510508503505516517513509512512512514511515515515512511507507513514511510512513514513510512514513514513514517515513512512514516515511510509513513513514512514516515513512507506509509507505509510512515515515515517508509517516511515515522521512503505507515515513510511508508513511511513513517514511511515514507507515514514516510509510514515510516512517516513509505510516513514515509504509512511512513518523516514504508516516514512515512512512516518512508512513514515511510507507508510512512513512511509513517512510509509509513513514508513514515516510510507507511515520518517518520516509504503508513510499504506505505517522515511509510505507514522518518517513509510512512516511511512512511511512513513515514511510507509509515516514512513513511512517516511516515512510511515513517516513513511513517512511512512511511515514512511513515516515516511512510510512512513514511513509514513512510512509509511508506507510515523518512507504507512514515516506511516522513507505499506511517518519513509510511506508513514513512512515519514511506506508512515514511508511515509514506505509511512508510512515515510512510514511511512512511511513517515512508512510513514514513512513509508510512513511513513514512515514513511508513511511512515513511508512512515512513512511515514515512514512514513514513517512511507509512513506502512521515510516515512509513512511508510515510503512519520517524514513513505501510518516510507507510512510513512516511510513514515513513517517513517512508507512512513510515512510509509512517513511514512505508507509510515515514515515512512512512511510515518518512511511509511513510512512513511510512512516510511515512512511513517515512509507510511512513512513508511509514515510513516513509510509510520518516515515517518513511501504510515511518514509515512508506511506504513524519509496511514517515510515518517513508509510513518521517515515514510507510514514514509511501504508512511514516516516512512512513511515511507503509511513516513513512513515520513514514513516512510508512513507506510512515514508508511511513512511515517513510507512514512513512506509508505513519517517508506504511513514515513512513518514513511507512516513512517509502519522516513517514512515511508508508510514514510510511515512514512511511511511511511512512511510513516512513513512511511514515508508510512509508511509509508511508512512511510515513511510508510511511514512510515513512514509508510513510513513513514518513511515519512510509514510506509512514513513509513512514511510513517507507510513515512512515516515511508513513508505511513515519517515510510505506505508510512513519516513518520517511512512512512508513512510507512515516518513517514508510510506512516516508511513515510511509512515515514514513509514514517521516513513511515518515513508506511510507508508513517515511516510507502509509513509510509511513513515520515514508513511507510510509511514510506510513513512513515510508505514515515514509505513515510510507509510512511518520520517513513512515517511510509506511508512513511512514509514514515511510513513516512516514512515511509509515516511504510514514513515513512508510511511507511512510509504506514513512513516513513512510512512514512509510513513513519523514509505507511514514512515511505509517513505518526515503502503519520511507509504505514513519521511509512512513512509510511513510511515513513511509512513512512512514513512510512515512512516515508510513518511510510508508510512512513518516512510514513516515512510509508515515513516512508508511510506507512513513511511511513515518517516510509507510515516514513513510508515513513510514511510513510510511509513513511512511513516511513517517514510509507508507515519521515504511508513514511514516520523518510505500509519517507507515516515508508512510515523516513512515516514510508509511513513515515512512512511513511512513513512514511512511509509513514515513510507508506509504504512514515514512510509515513508512514512511509512511512516516515513512513512516516514514509509509506509515514514515510511514514513510509506511514516511507509511511508512518519515511510507512516519513510510515515513515511511515513508508507513515513510515512511514515511509509507510512510514515517514514515514514512512513512511510512508507508512513514515513511515516514511514514509512511510512513512512513514513512515513513510511509512513514515515511511511508505509509513513512512512510511506513512511511514515513513512513513510512511508509512515511512513511511513514507512511511512512513515510508501504514516518517520512506506510514514512511511514512505499507512515521509506513517516514503506523521513511508513514514519520523519510503511514513514515510507510511509510511510512510507513512515509508515512513516513510511512513515515514513510511513513515513513512512513512507505508516509515512514516510513515513515506511513513515514512511508506509516513518515514511508513512513510512511511514511513512512518512512515516511512510511515517513510508510514518517509498506516511504512514518515515511511513513516516511511508516515512515514503505513518514509512511516509509511507509515514511507511511510513510513512512512509510511507512510508510509511509508516517512514517515513511514509511515515512512516513508512512505508509513514514516516512512512511507508509508512511511513512510511513513517512511512515516512511510512513515518517517513508511514513511516518509511512506517518518512513509508507509518518514514513504503516516512512513509510505510523519516511506500506517519519516517517511512508511512512507505509511512511511511513513513516515513516511511511512513512509507511512514516517519515512512512512517516511508510509508510509509515513511515517514514516510510505509517519510510507509512512512514514512511509508509510513515510504507510514514515514512510507511515514510512515509507511510514519514515511508505507516511512515517516513511516513517515513515517513508503510511511519519515516515514509507511512509511515508510511515515513513512511515513510513513509515512512508513507505507510511510512512512510512515513515510511514515515513516513511511510510512513511513513515513511512514511513511510507515514509503501509506511513512516518508512523516509508510511510509512516513513509510515517519511514518518506503503510515512511512510514517513509513515525519508507509507509512512515514511510509508509511512513515513515512512512513512513511512509509509513513515516517516514518517515515513515511509511507509511510510507507506511507507512517513513511508507511508511507509514518519509506502504515519509507515512510512514512507512520515512515515512515511507511515515519511511512513513512514512513515517518515514513515518515513515513508512513516519516513510508508511511512513515514515512512511511509508505506510512508508511512512512509511513512512512512512513513515515512513511511510507506515518517515512516515517515517515515514508496500506512515516519516520518504505516512510515515511512509504513514512507510511511513515514513513513513512516514511513510513513515511510512516508511516512515518513511513511510512511511514513514516513510510508511512514510514509512513511508511511509514515514515510512517513512512510512508510510507515516515515514513511510512513518519516512511510513515508513515511511511511513517520515510512514511504508509510508508512508511517510516513509505504509516514514513511512512515515509507511516514511513512510514516519515512511509510511514508507511510512513511513516517513513511512512509510513511514515513506505510511513510511509510513512511509509512515512510512510512510509509516514509512515514511512512512515512510513514511511512510512508511515515511513516517512509508508508512510512513513508508510514515517511514514512513510513518516517511508510511513513511509508511513513514513511512515515510510515518517512516514514513515513512513517517514511508508513513508509512511509506513508507509504506514517511514511512515513512517509511513513511512514514513512515513515513515514514505509509512510511513512511511512513510513514512511512512513513515512511509514515513513514515514515515513511510512510511512512512514513512508509512514509510512510509513515518518515515513513513510512508504505508512521521524522510507506505505509508511512508507509518511511511513514511510511510516514512510510510511513511510512517512510511514516512515511514513511506515514512506511510511513515515512515517513512513511507510510508508511509511515514516508513513510515510511512511515513513510507514513514513514513514512516515513513510512514513511509509510511512515514510506508509511511513512513514512516515513510514519515510509512512510514512516516518515512509511510510512513514511513508513512514514511511515512509511515513515510508508511510508510508511512513514516518514514515515509515513511511514516519516508511511512518514510505506519518516510511512513513511511506510511511514511508512513514512512511512512511511508509509511512513516512510511513511512511508510511513511511513511510506511511512510510511513515514508511513512512515515514511513514512509511512511513513514518514511513512514515512511509509508512515512512512509514516515517516509505509514513515515510511514517516516513514507501510513514518511517519515511511513513514513511512512511510510515516511513512505508512515510510513513512512510513512512512514514513511509512512513512509511512510510512513509510512513508509513513514519514514515512515515511511509513515517515512512515511512512510508511511509508511512512511511511512515514511509512514512510509511516513514512511509504507512511512512515515517515514518514513510510506512511512506509509509512513512515518517513510511511511513513513514515513512516514515513510509512512508512511508510507511509509515514509511516511513512515519516511512512517512512507507508508513515515513508504512515508507514515512515512512513510511511515515518515513514515510512510512512512511514512512510512515512511512515512512515513511512509508506512512513515512509509513515515515515514515517514514514510509509513511512511508509514509511513510508507509509513513514514511511507505511515517515514512510513511510511513515513512512514513513514509511513514513513513513511511513511515515515514513516512513509513513513509509510510507507509510511511513513511511512515513511512512515515512515515512513511512514512512514512510511511513517517515512515519515515516514509511512514509510508507505510514519517513512512515509512513511511512507509512508506512514509515516515516515513509510510511513513514513514511502504515512510511513515517511515509509511512512511512510512514513510511510510509512508509511514512517516516510504506512511514509509512515518519519515512516515515515512514508507511512510510514511510512518515515513510512516516513511510509511511509510510513513514513516516515511509508512514512512512508511512512512511513515514515513514512509512515513515516513511508510509513513513512513511514516511513517512512514513517513511510509512512510515518514514515511514513513513512507505508510505508512514516513515516511512511508509511510512512511510512510506508511512510512514508511511509516511508509512512511512516518515513511509515515513512512515515514514514511511511510510509509511515515514519511511513513514512515513512511512513512512512513511514510510514513514515519517513511507510514514514511508512513512514509508512512511513512510508511509512513509510512512513513510510508512514515514514507510513515516512510514511511508504512518515512510506508517515515516519514515510511513516519514518516514514512511511511513510513513512510509510513507511515515518515513513510513512513514514509507511513513510508510516514514509511512514513513513511509508512514518517514512508513515515515515512513508511514512518519515514510505512510509510513516510512513512510512513517513514510509509510511508510516513514515515516515518515513508506512514511510513515519518515516515507504515515512509509514517512514511512510512512512511510511512511513510513512511511513514511511511513511511513511510515514511510512511511516513513511509511513512511509512514515516513513510510510511513513513515510508515514513512516516513514512508508510509509511511521521519514509505506508507511519521515516516523517515514508509505504502508511514514512512511511512511510509512511511511511514514513515516510511512508508513513511511510512510512512510515512512514514513512513513513512508511511512513511509511509511509509509509511511515511515519519518513511512512509511515513510512513509508511510510512513512514511509509513516513513512512512511508511510513518516514512516514513515511510508508515513515512509509507508512513513514511514514515512515517513511509512513511511511510512510510511509513517515515515507506510511513506504511511512516518515517514513510509509509507513512515514510509513511516516511514515516513513512509513515515515516516511510513513514513515516511511509508514511510511513513511507507511508510511508509516512507508510508508519513512512513514513510510512511514516513511511509508512513511510514515510517513510514515513511514511511511510514513511513513512514511511511510513511513509509513513511510510513510504508508504506511519516516511513515515515518516514507509513515515511514516516518515513508510511510518518518515516518517515513512512513510511511510508513512511512510511511510512512515515513509506512515513511514513515514513510510511511510513508507512512511510512512515514513509514513512511513514512510515514513512514510506512515510510505503508506510509510512508510511516515515515516511514514512515512512510512513509506512512515517513511514515510512513514510508509510512515514516517515512510504509514512515514509506505517518514515516514515510511511513511512513511514513510512511513515514515513513515510507510512510509507508509512512511515515513513511511509510512514512513511512510510512518515516516510507513516515516518515515510512513514514513516512511512516519515519511508510510511510504510510513515516512508509513511506511511510510512509513515516516514511510513513516514514515513514511512508508513511509510513514511508511514516512510512515510511515513506514510509511513512511514510508509506508506504506510510515516516513511518518517514508510513512515513517512512509511512511512510511514517514509511512517515508510512508509510512516514519509511508505508509511511512512507511520518516513513513513513517512509504507513517512512517516515506505513518518519512512509513512508511512515514514513510511518516512515510509511519515515513508508508508510508513510512511518519512509511511518517510512513513515514513510515515517514507515518516511511512512507507512516511509507511514515519517510516515511510510508510510514511512516513513515511510514515517514510512513515511508512512507509514516511511515505508515518515513513505503508508510511509513512509510510511516513509505508512513515515513508510511512513513513511513512515517515510515509505509509505510507508512514513508510515511509512507505506512519526522515508508507510513512509505511515512519516515514510512513512512514515515515515513512514512512513517518518518512510510507502504513515516516513510513512512515512511513511513511515515514513512507511510511516514505506513517518513506510514514516517512514512512514516512511512512519512509511515514508504511511518516515512518515509508508510509510511511507510514515512516510510513511512512516514511510511514513513510509509508506508514513514517516508507513514512511516519511507512511511515516512512510508502508513512508511509511514514515509514511514518513