512511512510512512512512509512512513513511512513511512515516518515504503509509507510510511512515511516516515512512512513513512512513510513512511512512512513512511513513511513512513514513514514515516516511504507503492501513519524526515508508508513513510515512513513511514513512512513511512512513513513512512513510513512512512511512511511513513516515513510503507508513515511513510511511513510513511512513516514511510512512514513512511514513514512511511512514513513514512513514510512517519512507502498499507512514515514513513514515515514514513515514509509511512513513512512511510513511513515513513512511514512517516516509500499504508514515513508512512513515513513511514515510512513510509511513514515513511513512512513511512511511512509510511512512511514513511511509506506523517511511512516513513512508508508510510512514511512512513512514512510512511513511513513512511513511514513515516519515507506507510511510510513513513506504512515512511515515513515513515515519519512502497503509512513511512513513515513515513515515511513510511511512510510510512515514515509509512515511509510512511511514513511512512514512513514511513511511514513513513512512511511512513512514512509511511514510510512513514507507512518512513512510512513515508510512510510513512515514513510510514511513513512512513514514511515510508514513512512521519510504496499510512515514514514512515515515512513511511512511513515514514511511514512512509510511511511511512509511514521515512511516519515508500498504506509513513515512515508516516516513513513511510511510512512511513512513512511511512510512511513513513513510511512513512512516518509505508512507508511513514511512514513511513513512513513511508512512512513514513512512512511512511511513514515518516511507499502507512513509513514513515513511515512512510512513513513514511513511513515513513512513512514513511508510512513511510514508511511510512518513511511513512514516513513510505506511514515518516512505509509508510515516514509508510511514513514513510511513510517516514511512511512513510512511509512512514512513509510515511510513511512513511512511514512511511510516518512511506502508510511512511513509511511514513512512512514514513515512510511510512512514515510509512515515515515512502507511512511513513511513512513515515517513506510512514511511511509512511515514513509509509515513514513516510506509512512514511513514512511510515512510514511512512511512511512513510510511512509514513513513512515512514511514513513510506508514518516515505505505506513519521517510502506512512511513513511517515513512513509511510509513517511512509513511510511515513516514511511510509513514509512514511510511512513515512511510509512512513512509511512515509508511512511510513515515513510511511511511513511512515512513517513512511512510508512512511515512514513512514516514513507503506511504510511515516512509513515512512514511512510512511511514515511512513512511513513511511513515517519515506507509508509511512511510516515514513515514512513514512508511511513513511512509511514512510511511512512513512512511514512514512513514516508508509510512513511513511514518519521516500495504508508512513515512512514515516515511512513514512510511511513513511513514510509511515513511512510512512513509508512511512512512513513513513511513511510506511513512515512512515511512510508511512512512514512508510512512517516520519511508508499503508512514514513514514514515512509515513514511510510510513513511512514513511513513518518518517508492496507511512518516515513513510511513513513514513513510513511512511513512512508509510511513512510511513513514515512512509511513511510514513511509512512515513513512508508511511512512513512513514513512514513511510513513513514512508510509511512512511508511512512513514512512515514511510509515511510511512513514514512510512512510508510513515511513511515516515514509507510512517516512505502506512513511513513513514515513513514516517512510513510511511513514512513510513512510508507510511513511511514514514512510511513517516516513513513515508509515511509508512512513510507512512512509511512514514513512512513512513511513513514513509511510508511516511510509514510512515513513513511508511511511511511513511510511513516514510512515513511509511510513514513511509512513513516520515510511508507511510511512511515512512509507509511514515514513513511511513516513516511509505508515514513512512509510511512515513511510513512514513513512512509510508509511513512513517514511515509508509512512512516518511513507510511510513515512514512509511511509512514514511512512511512512515512510512516515508511511511510510514512513510513515513512510510511508513519518521518504498499504514519515511514512514513513511513513512511513516512509511512518521519507499502507508511513515513511513515514515512510506508513515516515512512511507511511511510513515516516515511508509511513513512514521515515513507507510507507512513511512515513511509510511512513507511512516519518511512511512510509511512516512512515520516511504500508510512513512514513508507510514512515513514512512513515512512514509510514511510512511513510510512513517513515514512513513505507509510509513512512513512512514512513514512516509512516516505502509510513510513513515515515510513511515513512511512514512512511512511511511513514515517512511511509518517510501502509511511513511513512512514513512513512512512510511511511514516514513512511514516517511509508508511510510507510519514515510512511512517513510511513513512510510513511510510511510513513510513511511511513513516520520516511504504510505513515510511511513514511510508511514512513511510513518515513513512510511511510511510512511514512512512511513511513513512512511514518519521518513503498493509510513514510508517515513512515513516512510511513513512512513512513511509511513513512513513511514510512511514514512514516514515508512507508511508507504509508510519522513512510510511513514513512512512510511512513511513513513511512512512511512512512512515512512508509513519512513512512510507508512514514517517513510501504510511515512511514512515513512516512511510514518518519510505511503506507509505510514512513514517517515517515510509510508510511510511515518514514506508513512514514510513513511513511511511516511514511510512512515515514513509507510511512514512511510509512514512512513511512512512512513516513513513509508506510512509512515511510518518514510510513519518513510505504507508512512512516512513514513513511511513512513515516515513510512510510508508507511512513514511511511510510510513513513513512513513513514512511510514514513512514519518513512496505511509511513507509514516510508514518515514512508507512516513513509512513511511511511514512511512512511511511512513510513513515513513511514515516519515511502496506510513512514513514517510511512515513515511512513513513511513512512510511512511511512511513512512513515511511512513513512513511507516517506502504512512512513514516515514514513509512510512513513514514510513512510511513513513511511509512511512511510512514515515515513512508505511519518518513505499506509512511502508516513513513512514515514513513515516514513514513515511504505508509510519524523519513507496504509512513515511512514514512514510510510513513512509510512514513512512514512511512513513513512512512511511514513510510511511510515516512510510511508510512513513514513512512512512513511513512513512511510512513511514514514511512511512515519513509510512509507507506510509513514513514515512512511513513513510511512512513514511512512512513512511511512515514513513510513516519519512509502496500504510511509512512516516516513512512511518517516514512508513512513513512511510512513513512512513511513513511513512512513511511512513509512510514510512512513508509510507512512514514515515513511509514515512512513515512510510511513513516511515514514511511508509512513512512510514514511512515509510508509510519511511513512512511512512511512512513512513513510510514513513514511510516521516514513509503502504512516517510502505515519514507508512512513512516520519512511513512509511514511511513515513514512512514513513511510511510511512510508513515513517517513512512507505510509512510510515512510512515511511512512512513512512512513513514513514512506512512514513512513513508511516511508517515514514509501504507511513515516512512511513513513514512509508510512513515514510510514516515514517509503512509513517512511507505510512512512512513516515513512513514512513513513516515509505507511512510517519514512513511511509506513512515515512512512511512511512511512510512511508513515510509511511511511515514518516511513518516508511503502506512514514515510512513511512513516515510511513514512510511508511512513516515515512513509505507510511510512511511511513512515515516515512513512505505512513513513510511512514513515513511511513515516512500504505510510511516516514512510512512513516512513516516509511511514509511515513511512511512512512513512512511513513512512513509511513511515511512515516517515510508499505512514512511510511512515515513510512512519511511513513514513509509507512511513510509510513514511515512511512509509512520514512512510512513511512511514511514510507513514515515512510507510513513514511509513514511513509508513512513510511515516518513511503509508511515511511512516516511506512514514513513513515515514515511507506509513514514511512511511511513512513513511512513515516515515507506507505510511511516512513512513510510510515513510513513513512509510510513513515514511513511512515513513511511511512512510509513511518514513511515511508508509510510509514514514515513510509511510513513514513515512511512513513509510512515514512510510514515513507508513508509512514513513511510512518518514512510506507512511510514513514515514511512512510513512513510513513511510513519520521516507501502499507507508513513514517516514512513512515512512512512511511515515516515512513507510516512512512509509508512511509512509513517523516507507509511511512515518514512510512511510515508514513511513512508507513512517518515511515507504512513511510513511509511514512511512514515515515514514511510507510510510508513513512513513511511511511515519512509513515511510513513513514508509513516514508508515513511511515516518519519514510500495499506510511513515519515515511508512514518519515513511513511510514515513511512513513511509511511514515513513512512513508511514512510512511511511512508510515510511518511509511511512514512510514514513514514513511511511512509510512511512513511512515513515510505507513514512513515512510508511513513514511511512514517515513512508510509513514507509512514512511511509512514512513513514511512513510511515513514515516513507505512512510510509508512519511511512512518515513508506514514510510514519521517512506499502506508511513515515514515514510513516518515508508513511511512513511511516513516516509504509510512510511513515510512511511515517514514513511506506509512514516518518512516512512508507504510509512512509509510514514515513513514512512513511514512511515511508508513513513509509511512512514515511512511514512513518516515510501501507511512511513511515514513512514511510511508512512515516515515507507512511515520515514508508508511510516515516518521512508507507504504512511512515512514514512514512510512511513511512515511508509510514520522513511510511511508511511508512511511512513513512513512513514508511510514516511512514510511510509509511517520519512503503509512513511512516516511512511513514516516512512514515513508506504512512513512512511511511511508511515514515510510510515520513510508511519519512507509510508510512513514516509509508505509517513514514512513513512512510512513512512513515517515512513509505511512511513511512511511510513517518516511501506509508510512514515515512515512508519521511517516515511504498501505511517515511510506505516516516515513510514516512509511512521517506507512515511511510510510515519515506510511514512512513511514512513511511507509511511512518515516516511512510509511512512514511509507508514513514512515513511511515511513515514513510511512510508509513509508513512514513512512511511512512512515513513511509510511513511511512512513512513511513513512511510513512512512512512512512513512510511515513513512509512513513511511515510508506512518516514514505501507512512512515514513513513509511511519514512512510513514511513510509511514513509512513513511510517521508501506512515516510505507515519511508508511519517514514511511515515514514514511508508508512512513509511508511512517507515513506510515512512514513513507510513513512511510511515518513509510511515514512514511511512510513510511510514512511512511511512513512511510510512509511513513517515512512512513512513512508513520515513506499504509509510515512510512517516513513517514510513511512512512511512511511517512513513513509509508507512518519519511510511509511514512510512514510510511509511514513514515509511514512509512508512512517518519514515509506507504505511513513515514504510512515511511507510515518516511513511512513512512513512513512512512513512512514514513511509511509512513515518519519513512504494507508511512514514512511512513513516513512513510512510511513512514514511509512513512514513516514512513512507512509504510505514521514511511510512517509512514505515513510512512513511512512513513512513511512513512510512512513513515512512512516519519518513507511500495502509514510514515518515511511514513511504505512515513514514514513515513511515512513512514511513511511514513513513511511512511509511513511511512512511514512514508510511512511509513511513511511513515513512514512510512511511513512512512510516518512512510508512510511513507509511512515513513512513512510513513511514512512513512514514512512515512509512511510510512515520519515512502505511512509509511512512512519518517514509498503508513515511514517516513511511514514512513513515516516517504503506508510509513510512511513513515514509512512513512511511511513513514513513512511513514511513513511512512510510512513511511508508509513513512512512513510512515512511510512514513511511512514513511509512515514511512511508508512512513511511510511509512511512512514514515515512513515511509511513512515517513515511503503507512513512509511512512511512511512514514515516518507508512513510513514519513509507509504511510508511517522519512510514509512509508510510511513514518514509511510510511514513513514512515511510506510511512512514515514508512516513513513508515514511508512510514510507509513515514516513509514514519519512508502502506508511513513515515513511513510509521516512514514513512510511512512513510509513512513512513514516513510506511511510510509515516511512509511513515515514511512512513512512511511511512512513513515511511512512511513512511512504511515516515512505507508507511507512518515511515515512513513513511508512512511513511510512512514514513512511511511512513512514517515514513508508507511508513512512512514515521513511508499506511512511515516513508509511511517515511511512511512513515512513514512508509512513513513512513515512511511513513511512509511513511509511508513511515514512511511515515512511510511512508513513512511511512513511513513512511511514513513512512512512515514513511506505508510511514512512513513514513510512513511512512511513511511512513512513512510515515513511510513513515514511510511514505502504508513513511513516515516513514513515513512513512509512510509513519519519512504502508510513510508512513515513514514513514510510512511510512514510510512515514513511510514513515511509507508512514515514510510512511511511512513514515515513507511510511510511514513511511513511510510513513511513512513511513514514511511513512511510512510513513512511510509515514512511509507508521521514509511508510514515515514507508508515519518514509504509506508512515516513508504509508512515515514511513515512512511515514513515513515511510512512513512510511507513512512512512513513511513513509511511511514515514508510512513512513513510510509510513512514514510510510513513512512512514512513511512512513513510510512513516517518508504502510511512515515511507508510513513515513516514512513513513510509511517519513515512502503511515514514515514510509508510517515512512507510513513518517515517513503503508511509512512510511510513516518512514512513515512510512513513509512512513511513511509511512514512512511511512512510512511512510513510511515511513512513512512512513512513512511512511514515509511510510510511509510516513518518513512508511512511515512514515511510512513510511515520518517510499500506508510513514511512511515514516516513514511510511513512512513510512515512515515508506510512518519512505507510512512514514512513512513511511514513513512513511512510511512512514513512512511511510512514513511509511512514512513515512513513509511510515515515513508511516511508511508508511511510515514508511513511512514515515513509510512514512517519513514511501502504511512516513514514514516509509510511516516514512512513509510512513514514510513511511510513513515515513514509509508512511511512513511513513514517515511511509513510508509506508510512513514514513515517512514515517512510512511507511513511515514511512506513511510510514510510511510513513515513513511512516519519516506498503509510511513514514515511513515513514514515513514512508509512513511511512512513512512513514513511512512513513511509510515512513513511510510513513511508513515513514513515514512511511509510512514511513512509510511510511510515516510505509513519519517518517502507505507508512511513514513509512514513515513513514517519518512508498504507513513512513512514511513514512512511512515512512513512512511513513512513510512510511510512512513512512511511512512510510510511510512512511512511514515511511513512512514515512510511512512509513512512513514512513511512506512515515513508511513511513511510510513513510509512511513513512511512519518517517518516516506504508504511511508500507511515513514514514516514511512512513512515515512511512510512513512513514514515513514513512511510507507510516515506505509513513512514513516514511512512512514511510509511513512511511511514514511511511514513512513513511512511512514511512512512512512510509510513516516511509505510510513512510512511512512514511513512511511514515515515511510512513519525524516501493495506519515512513500502510514515516513516515514513515509511511513511511511514515515512512513515513512513512512515510509510511507508508513515514517519514512511511508508510511514513512512512511509513511511514513513515512510511512513512513512511516511511512514509505505511510512514512513512513513512514512513512511511512513516512511509512513513512518519513512510502506509511508512513510513510511515512514512512512512512513513515515514510506510513513513511512511513515513513509512509507514517516516509502507508510512512514515518511510513511511517517514512504513513511512511510506506509517517515514512514513513511511510513512514513508508510511512511512510512510513516514514514511513514512511512511511513509508511512511512514513513512513512512514517516514511504502507510511514514512512510511512516516515510508508510510519516512514513511506510512513512512512511513513512511517513510512517515511509507507510513515513515515512512509512513510512513507510512513513511512510512512513513514515514511516516519520511503503506506503511509513512519517511514512511514515515513513510511510512512511511513514513512517521520518505497502503512514515508511510509509512516515513515514515513512515517514506509505512513510514513513513511513514512511510512510514514513509505507511511512515514511513515510509512512512510512512513515512512514510513513512510511511511513511513513512515512512513509511511511512512513512512510509512511511515512513511513514511511511511512512510511512514513514512511513511513513515514513512511514519507505496496507511514514512514516515513513511515514515514511512514511513510512511511510512511513511516516517515506506509508512510513513503508510513511513515513512510513515514513514514513512511511511512514512514512512512510512510512510512513512511514511513513513515515510508504511516514511510507513512511513513512510508512514513512512512514513513512511510511512516519515515509504509511514511511515519514512508500502508513510512512513513513513514512512512515511511511510516514512513513514514514513511513512512512515518511502504508508511512513512515514512512513511511513512514514511513515512512512512513513514512515510505505511513512512512511514513510512512514510511513511513511512513514516513515513511511511508510512514515508506509513512512511512513511509513512515513513514510511512512511510509511516520524517512509503498505509514513514511513514515514514511512514514511514514511512513508512513513507505510522517511508507507511516515514513512512513510510512509512515512508512510512515513511512512515513516510513512513510511511512512516513515514506507512511514514512511515515514510513513514505505505508513515513515513512512512511513517511510510511512514511511515514514513513511511511508512509509518524519510502495502509514515514514515514516512512512514513511511512512514513513512512511513512513510511510509508508512513513513514512513511510513515513516512513515514505505511518512511510512514511511514513513512512515511512510515514512508505505507511513514512515513509513511513512515512512513511512512512511514511512511511517517511512512510512514513512510507511514514510513510511511512512513515512515517519515511504503510511510507507509516510508515515511514512515514511513511515513512513510513511510513511513510511510510513512513512509512515515514510512516513513514506509509512511512514512511509512513512512511512512511513513515515513513512510512515514507510511511509512513512510512513511509510512507510517517513512512512512512510512513512513515513512511511510514513515516519519508509508491502508510513515515516515513513510511511515515515517515514505507508508511514515514512510507510513514513512513512511516514512511507511511512513515514513513511507510513515512510510507517515510513515513508510512512511513507510511512511512512512513512513513515512514510512512514511513512512513512512515511511511510507508516515515512511511504510518520519513505500504505511514519517513511511513513513513511510515514513511514512512512512509513515511511514514511507505506512515515514513515511507506511515514512513515512512511511509513512516519519515512503507503510513508508512512513513511513520519512507511510513512511513512513512511510512514512512512512511512511513513512512511511511511514515512511512510514514516510499503509512514512511515514513512515513513514512511512512508509512512514515512511512514515517515507502508511515512509515515510509512514511513515512511513514514512512510508512511512512510513512512516518508507513515515518510509508504508508512515514512511514514512511513514512511516512511514512513512509510510510516512506507522518513515513510506505511515512511512515513514508513514513513513512511510512511512515513512512513522521520513500491497510512513511511513515514515515510513513513513515512510514515512506509512517515511511511509512514513513509508511511512512512514514512511508512515513510511512512513508511511515516514513519514511507504507507511514513512513510513515514512513510513511511512511511511508509518514512512515514511509510511511513510508511512511513513514515516514512509508512510508511512512513513514517517514511508513511511511504505510511514512515515517519510503507508512513513514512513513514511510509510514519513514514513511512506505514515512509508512513512513511512513512513510512512510510513512511511509512517519512509511508511510514508509510507515511511518512510512513515510512510510512510512514511512510515514511514513509511512514513514514514515513511507511507508511518524517510506504511512513512514511511512510512519518513508503507511513508512512513514513514511513513512507509509518521512512511511509510512515516510506511515508511511515513513515508509510510513513512513509511515515513513517517518521515516506500501503508502505511512514516519516511515513512512512515512510515515515512512509510512512511513513513513512512513512511513514509510513506515512509511514514519517514504499503509511512512512514511512515513513512513513512512515512513509512512512511515513512513515516513503504507509520517511512514513513513510510512515511510511512510509512513512515513513512513512514513511513511512511514516514512506503511517514514513502506507507507512513516516512512513513514513513513514515514513513512510508510513509514511510508510513513520512512512510509510513512511510514514513515511511513514513513514513512506508510512512511516519518514511502498508514519515515513512510511509513516513511512512513512513512511509512512514513511512512512514518516515511500503505511516513513514510511512513513515513516513512510509514511510512512513513512512513511512512511511512513513510508510510513520516513512513512511511513507508507507510509510513514514512515512512511510515514512510510511513515514511510514512513510512509507512511514512512512513517514514512501502509512514514516518521519516508504505506507512512511512514514516513514510510511511510511511514521517510511510510512511511512511512511511512512513513518514512509509507510513515514512512508511514513515514513512507510512511510511512512514515515513512515512516513513512503505508509512513513512509513512512511512513511514512513514511511513513512511512510511510513512512512513513514513514518521526510503498497497511517515510510516519516513515511514511511511511512512510512512514514512513513512512511513512512512512517517516516505498503512513510512512509510512517514516515513515513505511512512511510513513512511514510511512512513513513510511512509507509520518512508512518512513511511513511511512510512512512512513510512512510512513512514512514513512512511511512512514510506510511510521511512508508509514514513512511511514513514510509510514513512514511511512512514512512511513513513514514511510508507507512516516517519510504506509512512512511513515512511512513514516512512516519517515506500505499515516509516512508507511518513510509513515515515512514512514513516510512511511512509511513511513514515513516512513514513509508510505508512510511513513513512513511513514512512513511513512513512512513510512512513512512513512514511508512506510515514512512512513512512510513513514511511511514512511511511513512511512510512511510516516518515512507505508513515514515508503506508508506522516512516514510513511508511516515514513513514511514512512510510512512512513514512513514518516514511507505513511504504511517516512513513512513513512511510512512511512514512511514512512512512511512512514510512511512509511513513512515512509511511514514511512512511513513509510512512511515515512511510512514512510512511510513514517520519519512499496502505518521518511502505507509511515512512516517517514512513509512511512511512513514515514512509510512514515510511511513515511508510508508509512512512513513513514515514513515513510513511509510512514515511511512511515512509510511512511510512514513511511511513512511513515512511510513512513513513514514513513510511506510515513511512510510511508512515514512513514514513510512512512513513511512512512510515510511511512511509510511510511511510512512512515524524519508499499510511511511511515515510509511512513514513512515512512511512512515513512514511513514507510513511503509512511513512511509515519516514513511510510511515512512513511513519516515508500503509510512513516513513513508506511513513514515514513512512512511512514512512511513512512513512511511513511513512512514512511510507512513510511512515517513508515511508509515514512510517519517511498499508511512511511514514513513514516515513512511511512514513512512510512511511511511512511511515513512512513511513512514511511508511512511514512513512512513510510511513515513509513510511511513514512513514508509510511507511511512519520512509505510518515514509507509510514514509508511515512520519512507513514516511512510503504514519512514515512509512510510507512511512513518518512515517512508505509511512511512512513514508514521519517509502501505508513516515516515511510513514510512512512512512511512514513513515513512512513512512514512509509510512512511513514513511511513509511514513512511510512512514518516516511502504508511511513514515514515514512512508507510512513508512516512515513515513512515512512513513514513510509505507511514510510513513516516513514510512511506515515512513515516511506508513509512511513515515515516516518516510499503508510511512514515515513511511514512510512511510514515514514512512511511512511511512511513511514514512510510513513511511510513513513512511511512512514511508509512516513511512512512508511514512509512511518517512510513511512512510511513515513510510507510514516515512511512510512511511513517515511507510513511511511510512513514516513512512510513511510513512515512510511512510511513509508513515514515513510510509512515514512517513509509511513513513514513510510509509509513514513513513511513511511512513513516519520511508504507514519511501505505508510512516513515512515515512513514514512514512513514512512513511510513513510511513515513512509507510515518516511508507502507510508515518515514514512513515512511513512512512513511511510510511512513512510510511511512515510513514513511511511513512513512510514515511512512513512513515512510512509510511512515513512508509516514513510504512510509509517521520513508504510508510508512517515512512515513509510511512511512512517520515509511510512514514515514511504504511511513511512513513514513511510507511514513515517514516516508503506509511512513513515513510513511510513512514514512513512511510512511513514514513510512512511510510511514515514513511509511511513511510512513510511513512513512510511508514517512513511510513512513513512513512511512511512511510510513514512512513514512510514512509510511511510512513511512513513512516514511511508513516516514515507501506512515513511507507512516513513513514512511511513512512514512515513515512513512510512511513511508512512512510514511514513511512513512508510510517515509508514512512508508514514511512510512511512514514515516513511509511512513513512507509513513510511513517511510510511515514514515507509510513513507504510512517514512516515506507508509513511509516513515512511513514513513515514512515517512513511509510510509508508513512511514515517514510502504508511515515512514514515514513514513513513513510513513512510509513510510510511512512511513513512515513512509510513511512514512511512513513510512507512511513510510511512512514515515510510510512515514509514513509510509514511513511512513512513512512514514513512513511511513514513515510510505507512509513514513514511512511512515511511513513513511510511512515513515510512511511513512510508512513510511511512513512511513513511512512510510511514514511514516514509513510511511511512512514513513510507509512511515512509511512509510510513515513514512509509512513512513514514510512511510512513510512509518521517513513511502502505513518516513511510511511511512510508512515515514512513514515517515515515510505504504505512513515516512508511514515513514511515512511511511511513513511511512514514513513513506511510510513513512511510510511512511513516513515512512511512508513511512512513512512518519516512507504504511512510511511514511512512515514513515513512513512510513513511512511513513512511513514508510507511510513512513514514510511511512513513513513512511512512512512513511512512515516509509511511511510514516512514515514512509505507514516516516515514505509510510513514512515509512510514513507507511511513514514513514512513513513511513510512513513513513512515514514511512515514512506499504511513511513512512514513515514513511513512515512514512511511511514512512511515515514509506512515511514513514513509506508510512512513511513514511514510512513509509508511512514516518516510505512513513513513513509509509514513509516515512511510512514510512510509512512510511512515514517513511510514512515514509508512503507510511510510516519515519514508502505509512511513513514513512512514513513512514512512514512513511510511511509511514514517511512506507512511511510512514516513513511511515512511508511510511514514511512512513511509511516512511512513512512513513511513511512513514511512513513514511511510511511511511511511515512508507511513514514515513512511513512511510513513515515514512510505508512516518514511505502505510510513512513515517514514513512513514512513511512510512511511511514515512510511513515516518513506502503511513512508508510508512510512514513518514512512512512513513516515510513513512510512511511510515514513513508501509509513513512517516509510508511512514514513513514513513513514511513513514513513511510510512512511507508512516520519513508499502504512514516515514515514511511513513516514514512508505511509510515516513511511509512511514514513510511510512511515513511512512514516513512510513514512506503507508509510513515512513515512512511512513512512510512511512514511513512514515513512510505508513516513513512507507510513516511509516519516514506499505513515513513515513513516512512511510511513513509508514510511513516515512512513511509511511513512511514516515508510513513511511509512511516518512511513512510511513515514514515510508509511508511513516511514511512517515508507505510510512511509513513513513514515510511514512514516517516513513511507506508513510507520523513508504504508513510513513512514512516514510509514515513512511510511512512510510513513512513513513512511511510506509518518511507513513512512511513511514517513510508509514508508509514515512510509514511512513512512513512511513514515511510512512511513512511514513514513514511511514509511512513512509511510510511513514519515514509507505512508510518519515510503503509510512515515513512515511511515513513513514514514513516516508504508511511512513510513512512512516515512513512511509509512511511511511512512509511516513513516514513513508505513516515512514510507511512507508514511508510511513520518513511510512510511511512511513513511512513512513513513512513515516511509508508508510513511511513518518514511506502504510509515514514512512512512514514512511511511513512513514514518519519517513498498501504512512515514513514513516514513513511512512513514511510511512512511510512510511513515514510513513511510510509508513513512509511512511515515511514510510510511512512513513513511512511509512514515514510510511514514511511508510512511512512512513510512511515514512512511510513512513511511515518519518511504501504510511513511509515515514512512511512515513514512510510514512513515513511513513512515513511510508510513513510512511513514510508509507511514511512510513519519512508507509509510511511512513511520517513511510513512515512512513513512511510505511510512513512509512512513513512513512510513513512511514511515513508506512513516517510514511512511510511512512514513513511512516519515513506500506512514511512512513514512512513515515512513512511510512511511511512512511512510511514514514513507507509508514511515513510508512512513511511510514512514518515512511512516515512513506506507508512511513511509512514514513513515514513514515512508513513513510512509510512514512511510512514511511511511512512512513513515517515512514511502502509514512512513512512511515515514513511510513512509513513512512512512513514511513511513513514510511510513513512513514513514509507506512511512512512513513513510507510513515512513512510509508511515515512512513517512510508508512512513512510513509510514516515514515515512511507511511512512509510512515515509508516513515512508510509510513513512512514513513512510511514516513510513520517510512502503507512512513510511511510514515518519512511511511512513513510514514512514508511508504519519516513512511510508513513511511509513513513512512510508511513512514513507508511510511515514514513513513510512513515515514510505505509516516515510512513511509514512511514512514511512512511515514511514512512511511510510513516512515512512516510502507512511513516517515513506499507511515513514512515514515514511512513512511511513512516512509510508512515516514511511511512510509511513514512513507506508510526518512508511512513514508509510513515513512511512513512511511511510514513514515509510511515508508511511511513515510510514513510511513515514512510513512506510511513513512511513509514513512514512513514514514515512514513508503506508511514513511509510510511516517515512511513516512516515511511507508503509510504514519513522519512510508511515511515513508508511512512511512511514515512512513511512512511510509512515515515508508511518519520516512504499503509510512515512514515513515513514512513509509510511515513512512511514512512511512510512512511511512509509510512513512510513512514512510510511513516514513510511512508510515511508510511511512512520520513510509511513516514510511511511512512512510509512512511513513510513512514514511513512509508509512512508512513512515514513517512510507508511513512511511510518515512508510510512515514513513515512508512510513513511512514510513511516514516519516519515505500500498506507512515515517514514513514517513511511510512511511511514512514515513512514510509510511511512515514512514513511508510510512511510511511513515515515513511512512512510511509511512512512515508508515511513512511514511513512512514516515510511512512511508511512512507512517514512512513511510510514513512514510511512511508513513514512508509510512517515512510510508507512515510512514514514515514512515518513513511507504507509508511512511515516514513511515511511512512513516511513511504512517516515512511511507518512507509511511508512509513512514515513510510510513514511511513513520516509516514507514510512511511510510510509512510510513515514513514512509510513516514511515515514516513514502498508511509523517513510507511511514511511512513513512513512512512514515515513513508511511508512514511512512512513513515511511512514509510513514510510509512511515517512511512510511510512515511508512515518515515511505508511510511513510511511515527523519508502501505510511510512510512513513515515512509515514514511510518516513510511509511507510511512512512515516511512511510510514514516511508511510509511510524517511508508513511509513510513513515511514511512510513508510512513517513513516515511511508511509505511511513511511513515512512513512512513512511512513514514511512508506518513511509512517511511513516509510510512511512511510511514512515511513513510505507514516513512513511510513510511510515513513512513512511510515512512513512514510514511510513512511512512512512508516509512512513513511510509508511516518517514512516519513508500501507507514518526513506503505510515513514515516516515514509509512511513512512512512510512515515513512512510508516515510509512513512513511513509507509512513516515513515512512512505504505506513513516513512513512514516513511509509512515512513513515513512511510513513513513509515510514513510513511511512510512512520510510513511508513508515515513513512508511510508513513512515517515507507508511512516516517516508500505512513512515512514512512515511511513512513515512511510510510519519512510512512512510511513512512512513511509511511511509517516513514511509508511512516512512512512511515514516516510503504505512512511513514515515511512513513512513514514510506506513515509507510512518520514514518508507503507509517513515512513511512511511511512513512511514514511511511512514512513511516518515505509503506508514514509510517515514514512516516516512505501506510511513514515514516511513513512509511512512508510513512522520511508511510512518510508512513512507509511511515514512510512513511516516510511508512511515514508510513513513508510507511520515509511514514512509511512510513514512512512511511515513512511509511511513510512513513511513511511515516513510510513510512512510511512511512511513512512512512512511512513511512512511510511512514513512512512515513515515514512509507505510505508511514514513515515513512512510512514512513510513512510512514512511512512511512515519521520515508493497499509519524520515510513513507509513515514509511513510511510512512513513511512512514513514512513511510512511513512512512512514512512512512515515512511508509506511511512513514513515513512511511513511511510511511511512514513511513514513512512512511511515514512512510509508510508512511508513512513515514513515513512513509512510512513512512513511512512512514512513515511511510509513513512511512513514513508508511515514514512511512513515513508509511510510509513511513512515513515515515515511511512506507509511508512513521516515512513508506510514514512507511512511511516518513511510512513510509512520519518517503495499504512514513514513514513511513513514514510512514511511511511511512512513511513511511511513514515512510513508510514514515511508512512509511512508511521515513514511511513508511514514513512511513508507513512512510511512512509511513515515513513509510513511513513512509513513513514515508511512512511513511509511512510511519513507508511510512520518515511505508513515513514512512513511510511511508515513510508511513512513512518513512507499505511513513515513513514515515513511506509512513512515512511512510513513512514514512510508512512511513512512511510513513512509509515514512511512515515513512513515514509510509514511510512511506515514512511508511509512513513512512509513515513513512512513513511512513511512510512515512511510512513512512511508511513513512508510511508515520514512511513513513513509507511511512511509512514511513511513514516513511513510512516520513510513515506499501509514512514513513515511513513513512514512510511513513515514514514510507511517521520513501497502506512514512515516511510513512515512513513512513514512511511508512515513511512510512513513512511513512511511510512511513512511509508514517516513509510511512514513509510511511512513512510511513510512510513512511511514514513514513510511511512514515509510517510508512516515513510511516515509507511508508509509511514513511513515515513510513514514513512512512514511511511513513515514515510509511505505511511512515515514514515513514513509510508507511515514513513513513513513512513513511512511510514509510510514512516514513513513510503512515512513513508510515516519507508513513511513513513511511512514513512513515511509510508508514517511510511516515511512508508514512508508510512513516515515514513513512511511513512511511512511511511511514512513513513524525516515507489496507507507513512515508513520512514516514510511511513515515515517515512510507511512511512512514514512512513510511509513513513511512513513510511512512511510511513514512511512512515514513510514510505505511507514519514509510513515515515514511509510507511514513511513511513512512510509512509512511510514513515512513512511510510512511511513512512510510510511514513513519511512511513510509513511516519513510511507510511512515513510508513513512513512512515511511508512513512513515508507512510514517516514512511513511511508511508512514513514511507512517513512510511513514512508512513511515518514508507515521517512510503507506508515508511511507509515515513512512512512512514509508510521523514514513503501508515521517516508503511512515512514514512511511511510509511515509512512516515513513510511507513514514511510510512515519515511509514511513504508510512514514513510507510515518515516513508505504516516511510512512512515513510508511513516509509515515513511509513513512505506510519518516510511512513512514511510508513515514513513512509509511507510512512510511511518519510511511511512511513510510512510512513513513513512511514511510514509510512512513512514510511513512515515514514516504508508507509510513512515515514510509511512519526514508509511511512511508511507513515512511510514514513510511515511510515511514512513510509514509511514512510511512507512512512512510512512518515514517512510507512511512512514510510512512512513513513511513515512513515512515509507512512514514514511512510513515514511509512512513514512504511513511509509511511513514512514511513511512511514513511513512513512512513515515509507511515522518508499508511512517513508506508512510511512513514511513509511514517515513511509512514513515513510510512513513512514511512507511512514513513512513511512512511512511506512513515511513512511511507509512513517520514513508510511510510512515512511511513513512512512511513515513513511511513510510510513515515512509514517514512505509511510510512512511514514512512512511513511512515513512512510511510511511508511518512517518516510504505503512511513509512515514508515513513514513514510511515516513512512508510516512505512517508502506509519516514518513512514511510511512511510511511510512511513511512511511512511513512515513515515514515512513511505509512512512513513514512510509509513512511512512512512511512510512514512512512513510512513512512513512514514512513512511512512511511515514509512511514512511507511510511509511510511512511514518514511514514511512512509511511508511511513514515512514514518519519513508497498507507506515513514513514512513515514516513508511515515515515511512515512512511510513514511512514513511512512511511514512508510512514514513509512509508511517513513512511509511511511511513512510512514513512512513511510515513512515515515514511513517507506509504507521518511511513513508506511510507511513514512514513513515514512513511512513512514512512512511512511509510510512508509511515523520519514504503504514508509513511512509510517514509511511513513513515512515514510508512512512513512512514512509512512516519520521507498501505508509510511512514513513511512515514515515513510505511512516514512510509511514512512513512513513513512508508514512512514513512511510514512510512509510513520518510506512508508511511514515511512514513511514509511513513511513514513513512512511510518513507507512512515509509511512513512510517514512510512512511512511513511513511512512508512514512512512513512511512512515513512510514515517514510509504511513513512509509511513512514512513513510513513510512511512511511512513512513513513512513513511511513511511512518523519504502502505512514513510512515512510510509508508514521514509513513512513511513512513511513514514514513511510512512513515512512515514512512511507503506506511510512513513513513511515516513511511513513514513514515514510510511511513511513510510509508509513513514513513514511512518520515512507501506511509509514512513513515510510511510519524513510511512512514511504511513513513515517513513512505509509511512512513512511511512514512513511512513512511513513513514515505510511511513512514508510515514512513513514511511513513514510509513513513513512512510511512508519516508514512510507507510512512511512512512512509516514515516514513513513506507511513511510512511513513513513513513515515513512508511513513514516514512504500502506512518518514516513507509512510515515512512511513513513510514512511509511510510512507508513514516521519516507511511503509508505506513513513511511511513516512515514512512513513510511512514513513511510512513511509513512512511505508515515515516515513511512512511508510510513513512511510513513510512514515513512509509512516509513516515516515513514508506497502508509512513514511515517518513510511511512514512513513512512511513513511512513511511511514512513512511515514513514508507510507511511512516516513511513510508511512514515512516514510504503507509512515513514514514515516512511512512510511511512509509512512513513513513512515512512514512507511510511513518515519514503502507511513512513515512509515514511514514511510512511512509512511514515510511512512514511510512511511518516513512512512511511510513512513510512512512513514514513508511511510511511511513511512512512510508514519515512512512512513513514515510508509506509512519516513511509512513513513516513508506510512512511510512512512511513513515516514508509508511514512509509514513512512511514512511511513514513513512511511511513512513513513512511512516518515511508503505508510512512519517508509508511511513514512513512515513510512513512515513515513507511510513515513516515509511511510512511511512512511512509510518516515515511509508511516507510510511512510508512515512508508513513514515511514515515517514510511513509505507511510510509510523519512512515512513512510509511511511512513509511512512510511512511512510511512511512513512512510509511514514513510511516515518520513512513495502508512511511512512516515513514513511513511512513512512513509512512514513512512511516515512512514511509508508507512512512512514515513515511507512511510510511514513511510512514510511512511511514518519517516512504506504512510505511513512514514519518504507512512510510512513508518516513514514512513511514512511509511512512512510511511512512512512509515516513508511508508509512510515519512512516520518513510497504506511510511515515512514514515515510512514512513513511510511513515515515514515509510511508507510508508509510513515515511511511513519513512505509517516514513511512512511510510513513511511508512513512511514513513508507506507518520514513512512508508511511514510510512511514513513513510512511513513511512514515513509510510511511512511521519510506510507511514512513517515512511511508508511513516513511512512512510510516512512513514514511511511512512511510509511515515511510511516515516514515513515508501502507509513512514514514512513513513513512513516513513516518515515507507510509505511510507505511512520516512510511518511511511509511517512512512515512511511509513513511512513511512510512514513513511509512511515512513515511508511509510512512512512511511510511511514512513512512512513513514515512513513513510511512512512503516510514513514514512510512511512512511513513512512512511512512510511511512511511511513522515511508507512511515515511512517516514511502500507512511513515514513513512513513514511511512510512512514513515515514512504509509509512518513513511507508512513514514512514513519519517514506502507508512511510512512512513513512511511508513516513513514513512509513517515506503512519514506507511510511513513512512512512512512514513512512512512513512513512511512509514512510510508514511512510513519518513506500505510513515513514514513511512514513512513512511513516517515514511506507510511511512513513511511510511512513512513511511512512512511513512512513512512509512513509512512514512515516514515512510510512510512513509509513511508508511511518518513512509511514513513512512512508510513512512512514514514511509511517517511514513513515509505504504510513513512513514514513511514515513512511511513511512512513514520519513509503502508512512513514510512511511507510514516513510512513511512514512513512511514512513514511511512512512512514510511512512511512511512513512513512511512511511512512513512514514510513508508511513514516512510512511510512513511510513511512511513511511512511512514513513511510512514512512506510512513510512511512512511512512513515511512511511513512513512512513515512511515512504509515516517513510496499507512514513513514515515515514511512515513512512512511511514514512512514512513520513506500502507512514513513513511514514514513515512513514515514512511510511511509509508511515516515515510513516515514506506507509511510512514512513518518512512512505509515511511511513511512512513511512512513516513513515512512513507505514514511507509511513515515512512512512512512512511512512514512511512518522519512505497504506509511515514515514512510511513513513514511512515512512512512514513511512511511511512512511511512511512514514516518511509511509512512514510508511511508511511511508515512508509511514513515514513509509514514514512512513514513511511512512512510510512513516513514515512507508505521517506509510511521520514512505501504508512514515513513515512513514513511513512513511511511513513513512513509508512512514513509507511513511509513512512512513512513511515515513512510508512513511512511514512511511510512509511511515513512514515512512511512511511514513515515505509507509505505519517513512512518515514510510513515512511510514512512514511510513512513512512510515513513514513512513510508514517512500503511516518511507507511508511511512513514514512515514515512512513513511511513513515514513506506512513514513504507515514516511512513510507509510514518523514507509512512509510513513511510511514514514513515510508508509510515509519512512513514515509512512514510509510511512514513512513510511513511513513511514508512516516518512507512515510508508499508507508513517513515515511513515512514512513512513512511513512510511511511514514511510508511509515515516512507512510507509512519514512512511512513512512509511514515510512510511510513517515510512511512513513514515518518519514506504503508508512510513511511510509511513511515514515513511513513511511511515512511511511512512515513513511512511514516515514515513508505494505512515517517512509512512511511512515513514515514514513512508510512514513512511510514513511514512513513512513513513510512512513513506508513514511512512514512511512511513509510510512514514508512515513512512510512511511514513515510508512511513514510512513513513512511509509512512515514513511509511510511512513512514511512510512512514512512512511510514515513512515511513511511510510513512510512510513512512512513511511510512512514511512513515516513510515520516507495505508510512513515509513512510511513515514511511513513510514515512512512512512511512512513514513512512510509509512512512511513513513512511512512513511511511512512511513513511510510511515522514513514515512512512512505503505504511511513512516511515514513514512512512514512512511511515511509508511511515521519510508508511510511513512512515515513509511511510512513512514515512511512513515519519518510507501501508507510514512513514515515514515515513511510510512512512514513513511509513513513512512512513507511515518517510507508513515513512509509508511513513511511513511512512512515512514513512510511512514515510515514510505514510510512510512518516511510512512516512512513512511511510509509508509509511518515513513512511515513512513514517519514504506507510510511511512513515518519515517510500504506508511513514513513512511512513518516513511510510512515515512512511511510512512512514515514515513511512513501501512515511515518513511508511513512512510511514512512512513511511511516515511512513512512511512515518513514512511507506506512511510512511512512512512516511513513512513513515519516514507502505507511514513514511513511513511512513513512512514512515518512514521503498500502511515514514516514517513511510513511514508511518509515511514513510512515516513509511507508519514512513512509509507511511514513514513514513512510512513510514511512512510510511509512511511509513514514512513514511510510511510513512512527521506498508508509512514513512514509509512513515510512514512511512512513513511513514512512512513512514513515515513508504511509507511512520519512513511509510508508510508511514512513510514517513513510511511512513513512512515513512510513511511512512511512512514512514514516518516517512505504509505504502502513519521519518514513504505508513516512512513511514515509512513513513513512511510513513511511512515512512511511513513511511511512510514514514512510510510511515513512510511510510512512512511512515513512514513511512515513512508507510509509510512511515514513515508512514512513511511511512512512511512514511510512512515512512512511513513513512512512512511511512515516512507512515513512511508511510511517511511511512512512511511512512512512515513514513512511505507510518516512512511516518518512504498508513512514514513512512511511511512514512512514515515508511514515518519508504504505520510505511511514514514512512508511512513510512513512512513513513510511512514511513511514514514513512513510508510511519515510507511511511511513513512509516516513510512510513511511511513511508510514516513513514511513515515507508509511512513509510515516515519511504501512517514511514510513511511515515511512513514514513513513512513511513514513511511512513512512512513512509506511511511516520507505509511510510511515511516513511514514512514511511509512513513511512513512512512513514513512511511513513521520515509493501516512506507508512515516515514512507505511517512514516515513512514512511510509513512511513513512512513511514512511509512517520520513507498503510508511511513510508512512511512514513512515514511512513510510512512512513513512511514512511512513511513514512512513507509510511511515511512517513510509509509510511511513511513512512510512510512515515512513511516512513513511512512512512511512513513515513510514520514511505505510507505511519513515515511512511506512512512512512512512513512513513513513512511515512510512511511512512513514512510508515522523520512493494501507511512512517514515517515513512512514511512512515513515513505506508510509516520513512511510509511510513510513511511512513514517514510506510511512512512511511513514513512510511511512512514511511511513516514510512516514511509507512512511512511511512510511511510512512512512512513513513511512511513511513509511512513514514512508512513516516519512507512507507502504512516513512512514512513512511513516514514513513511515508511515512510512513515513514512511513510509509511514511511512510510512513512511511511510513511514514514515513512511511512511510510510515512513514513512512510508510508518518513516511508508513512514511510512513511508512513512514514513512510510514513511511510511513512512512513516518519521517510508502502505500502514514515520516518517513505503508512512513512516512512514514512511511512512511512511512513511510514516513512513514511515514512503508507511512512514514515514511508507511512514513512510513512515512512511511514513512514511512511512511510512512512511512514513512513514513516510512502506508505511509513513520522517514508499507509512513513513513513513513512512513512514514513514510512512514513512510511510512512512511509512514515512510510511513510512512512512515513512510511511511511511514513510513509511513513511513512514512514513512511515514515513510512510509508506518503507510510515517517510514518513513509507506510512514512515513512511511512513513514512511513511512514513514515516520518514500495497504511513515519515514514514511513513513512514511512512511513513512511511511512513511513512511511512511510515511514513514512511509512512509511510512511512513511512512513512514510513513514512512511512510510511512514512512511512514513513513513514513511510510508509509512514514512507507510510513512510519513512512512512513512510508516513513511511512513514513510512513513518517516512515512518516515497493497509512508513512516515513513516514513513513509512512512511513512514514512512512512511512513512513511512510511512509509511511513513512512514513512513514513515514517514512500506508509510506510516513512511512514514514513514512512513510511512511513512513513513512511512512512513512512512512512513511511512511512518516516514503497500508514512510513513513513514512517515515514512511511513512509512515514512512513513511512512512512515513512508506512511515514509514519514504513513508506507505519515514512512514512513512512511514512511512511511509510511513512515517518519517511508504503506512512512511510511506513515513516515512511512511512513512512514512512512512512513514514513512510512512511512511514512513511510512517519515513511500501507512511511513512515515513511511507514512512511510513516513513512514511510511510509513517515509504508516516511512516516517515511499508508510509519516512509513511507511514512512512513515513512513513513510510511512513512514513513513510510508512511514514512514514510510509511514515509512511512513513515512511512512513511510510512511511513517520516516518509506504510508507506507509518514512511513513513518515515510511512511514511514514512511510511512512513514514514512508509512515515513515512509507505508509509511514511511513517515514512512513512514511512512512515511511511509511514518519515511505510512512507508512512508512512514509512510512512513514512512512511512512512512512512514510512510512512511510512513511512510511514512513512513514514519518515509504498510514510510508516522510510512510509509510511515515514515513511511513515511509512515512508510511512511512514515513509511512513515512513512510512510510514516515513513509506512516511508511507506511513511512510513515515515515514513512510512512510513512512511513512512512513512514513512513512514514514508510513508506521513513508509507513519521518511506500510511510512515513515511510511514513513513514512512512512512513512512510512511511508509511516516513512514515513514512515514511504504507510511511515515509510515512513513514514511510511511513514514513512512508510514511514512514510510512516515508505511513512513512512509511512512513511511512512511512512513513512513515512511512512512511511511513513513516515515519520516514505494504504502506512513514516510512513513519510512514511513514512513515515514510511510510513514513512511514510513513513511512511510511511512513511511509511518515511510507508509512510514515518514514511510512513511510511509510511511512511511513515514514513515513515515511504503504513512513514511510512513521520515512504502510513515513509508512511512514514514514513511511512511512512513511511512513512512512512510512511512511513514514512512511511512512512512511510511514515513511511508512509510511514515515512509506514511512514513511510512512510512513511511512514513515516508508511513513514514512510509509512513513510512512509510508516517515508507513510512512509508508510511511516515515513512511511509512512511512515520520517511514513502501510511512507506508511514512515515512509516516515511512512512511513513513510512512513514512511511511510511513513512511512515515514513512509507509512512513514514509509510511512512511511511512515515515513512512513512511509513513514514513511509510513513517515511510510510508503512516523516512510499504507511514515513509514517514513515512511512511514516514514511512511512512512512515514509508508511512512514514515513515512516515504502506508513512511509512511512509515517515514512511515513512511513510513516514511510511512511511512512513512510510514516514513506507507509522520509504509512513512510510511511509509519519515512512512512511511510509512513514513510513511512513510510512513515518520521516504496503511514512502503511516512510514514515515513514513513513514514515514514511506508510513513512510511511510514513511512514513512511511512516516515512508503509513515515510515514513518514501503504509516516512515512511512511510512513515513513512513512512510513512513512512511513512511509507512516513510510512513517515515511506508512515513513513511512511512512511512514512512510513511514517526519511500500506511511515512512514512512515513509507508512514513516511510513514513515515512510510512509510515513512512517515506505511510511512511511512513513512513515515513511511513511513510511515511510509512514514511511512512512514513513512513513510510511513511509511512515516514513512509511511510511512512514512512512512512510510512512512511512511513518515514510511511511511511513510509512515512511511511511512512513513512513514511511509510515514513512512512513512506509512508512511510509517516517511508515519514514516516511513508496502512516509510516515513511514514515513513513513512513514511513506508513512514513512511511512515516511511506506509518517516518511509512506508507507509514515515512512514514514513509510510513512512511511513512512512515514515515509511505508511512511511510510515514516515515512512510510512512510515513513512515511508509513513514513511506508512511514510509515515512514512511513512513513510511512517518516511502501507512510508509512511514516518514514513513513511510510509520515512511512512512511511510510511511511513513509512514514511509508512514514513513514511511513512511511515513512512512513509511514512510512511511512515512513513512514508508516516511503505508510515515514513516517515511506507505505506509526522514512512512510511512514513515512511511513513513509510512512512513513513512514516517509508502502508514514512515513512513513514513513514514510513515510512511510510513513513510509512512514515511512513509508512516516515509506511513511508507510511511512518524517511511511512507511513517516514509510508508511512513508509514514512511512512516511512515510511511509511511514514515513511512511510512512513510507512519516512512510509511510513514510509511511512512514513512514512511515511512513511506512513515514513512513512511512513511512512511509511511516513510512511511515512513508511512512512511511516521515511511501503509511512511511512513516516514515516508504506509511512513514512513513513511511512513511513511514511512512511511512512511514512513516516515511505503500512515515515514513511514510507511517514516519510503508513514511503508511517523514511508514519511512510511514510510513512512510511511512513511511513513511512512514512513509511511512514512512515509508509511513512512512512515513514514513512510512514508512512512510511511509513511512515521516512511502501507515515516513513512512512515517512509511510512512508513513512513510510512513513515515511511511507511513512514514512511511513511510511514512513510512513515512512511513513511514518513512513508505510506506511509510509513519521515511513511510512512515513513512510511512512515513513512510513512511512512511509511508512529514511508509512517517516509503504509505508513512512515512514515512510513515515512515513516513512507510508517508508507509511516514512510511509515517516509508512514512509513512512511512513511512512513511513511514511512515512509508510511512513512512513518513516517514508508508507507510511512511514515515511514513513512513510512513513511511512510509509511513522525520519509497492496504515515515510511516515512513515514514516511512514512513511511512510511514512510512513513513512510512513511513512511512510508511511514516511508511512512513513513512512514514512513510512514511508511513513511509510513512512514512512513515511506509510514511512512508510512512514512512514512514511513513512512511511512511513513512512514514511510512513512512512508509507506510510512514514515515513512510511509512513512513512511513515516513510512514511510512510504511517516513510511510511511509511514517517516515509499506508512513515514515513512508507508513525521509507508505506512514513512511512512513512513510514514511513512511512512511512513512509512512511511512513513514516511512508505510518515515514511505508508508511513515514512513512511512511509513514515512512512513511512512513510513512513512514516510508512515515511506511511513513511512510511512517512513511509514512510513515513512513515515520521517514504497496499513511511512511510511515515512512516513513513517511511510512512513512511511512510512512512513512512512512513512513511512511512511513510511513512512513514512513512514515515511511507507507516512508514511512511510513514512510511513513515514514512510512510512514511511512513512512511511511514510511510512513512511514516517515519511505503501502512519516515519521516515504500500504512513514515514515513512511513515516514511512513512508511512514512513512508512512511512511511510508511514512513514514512513512515512511509512514512512514511512512511513511509510511514516520510504511515513520512509510510507512514513509513514512511512513514512513513511511513513512512512514512511509510511512513514515512514512512511514511513509508511510515513514510511512518518514513512503504506512515510510510517514513512513512514513514512511512512513514511512514515514506508507514514501511510514516517513506514511509510512513511509516513510512511513516515511510508512511510510513515513512514511510511509511514520521515511510514509507509510512512512509511513513512510512512515513511510512511513512513513511510512512511511513512512510512513512511511511513512512514511512510513513513517516519519514511503496505508513512514507503510509525525511511509513512514512512513512512512512511511510508511511512510512510513511512516513514513514516515518516513510504502502500508518516512512508511518515515513511512513512511512508513515514512512512512511511512512511511512512511514511512512511512516516516514512508506509509510514513513508512512511513511513511515515514510512512511511512511512514512512511512517518520515509499499504509511515513512514515515514512508509511512512515516511513512513512511512508509512515512511511512511512511514512514515513511511510511514518514508508511511512512513510512514513511513515515513509507511512513513511511510512513513513512513513512512513510512513514514512513512512512514514513507511514511515512497504509510520516517510508511512512515513511513513512512512512512510510511513511512513515512510514513513511513520518519510496499505511516515517518510507508510510512513513513513512512513514513512511515513510511514511512513512511512508512512513513512510512513513511511514513510510512511512513515517515513513508510511514513510512509509515515512515515515513508507506509509514516511511512513513512518515510504504510514513513513515515509513511511512513509511512512512513512516515511512509511514514515514511507513518514508503505512507511514511513512515517513512513510512511512513512511510512513512512513514514517515512512507509512509511512512512510512513513512513511512510509513513513516511511512511512512512514511508512514511514516517515506505508511518519511502504511515511512513512511513513510512513514511511515511512514512510513512513514512510510512510508508510524515512517514513508505511512510511521514511511512512511510514513507505504517522519514508502506511512512512513510512515513513515512513513512508510512514514518513511513511512507506513513515515512508506511512512513511514513511512513511513510513513512513515512509513511513515511511512512511505507513515516510512513510512511512509510512515513513511512512512513511513511512509511514513513515512511511511512513515516511514512511509508508508510512519519512508505510515517513510499507509513514516514511514514513513512512513511512513512511513511511508506510515514515513510512510515513510513512513509512516514512508510509513510509508512511518516514512512511511512511511513512512514518518516508508505507507507514513512514512508503512522515512509508512514512513513512511513513514512512512511512513513512514511512511510511513514515516514514519515513508501497508505510511512511516515515513511511515515515510513512514514513509511512513510511510511513512512512512513512513511511512512511512512513511513510510511512512514516512511514513517515509505509504508510513513513515512510511512511510514514513514515511511513510511511512512513515512516513512509513514515512509501507513512513513516513513509508513510513513515513511512509511512512511510512512513513514511513514514512512510510511512515512511513514516514511509502508508511511512514512515513515517513506510510511516520512512512510511513512513511509511513517518515518510504505510509508506510514517512515512513513515514511508511510512512511512514514512513512512511511512512511512511513513512512514513512510506510511510508512523516511511511510512512512512510513512513510512512512511513512514513513512511512512513513512510512516520518514508500503514514514514507505506505511513512513512515514512514513514513513515515512514511510514512512512512512511512512514514516517514514507501512509508511512514511514513514513511509511512514510512511513514512511512512513511513512511513512511512511510517520517507507512511512511510510512513512512512511514510512511513511511511510511511512514513512513513512512511508511516514514519517513511503501502507511516514515515513511511511512512511511514513512513511510512513513513513511513514513513515510507508508510511515512516517515515516506513508498507510512512513513516514514511513514516512509510514513511512513512510512515513512515508506511512513513515511509513513510513512511513512512511513513511512514513511510510510512513511512515513512508512510510512513517515512512519521516513504502498505513514512513516513512511514511513510513515512509512513514513512511512511515513512514514508508510513512512511513512512512511513513513514514512513513513519512506502503505508511513514513511514511512513512515514515515514516514512512518507506507511510511510511511512516514515514513509511512513512515510512508507511513509515520518513511511513512505509511513511510510512512513520518512510501506508512512515511512514511513513515514511512512512513513512510512512512517513509513514514510509509512513510510511514512512512512510512513515512512513515512512512513511511513511513514512510510509508511516513511515511512511519518514516507503507509510511515514512508507509512515515514514511510512512511513512513510513513512512512513513513512507508512514514513513513512513512512515513513515510509510511502505510511515515515519521518513502497506511513514515516515514514514513513512512511513513513509504505513513515515511509512513513512510512515514512511512515510511511514515514512511511511510510513512513515512513513511511513509510508512512513513512510513512510520516511514510512511511504509513514511511513512514513512513513515514515513509511514511512508505508516516519514508505508504508512515513514513511515516517518513508509511509510511511512514514513508508512513513511512511514516517512509510509512513514513514513511512512509512514511512512511513513513512511511509512512514511510511512512510515514513510512511511508510514514512511511512513510511512510511511510512512514515515513511513512519511508505506510509509512515514515513511513509510512516514514509508513515512512510508510513512515514516519518515510501501508510511512513518518515513513512512510515515516513515511514512511507508511511516516513511512515514513511506510512508512511511512511512514514512511511510512511513513515511508511512515512512512512514511511513512511512514513512511509510509511517517516513514511508511508509509512510510514514513513511511512513512513515515511513510511512510511509507511516515514512510504504507513514512515515512512512515515515516518515511511506507512518516512504508507514512513515511513513515513513511512514512512511511511512513513511512509511512512512512512515511514513507511514514512512514514514510511506505506512514515515515513512514515513510510510510512517515513514511512508511512512513513512510510514512513509511512515512513513515512506509510510513513516512515519512508505502508514516511512511513515518514511513510513513513513509512510512512510513514514515514512508510508510514514512513510513509505512512511511510511513515515512512512511513512512513512510512513513511511509512511512512512515510508512513514512513511512512510509511512513514514512508509513512512512513513513513512511510512517515516515509511516504504506508514511510517516512512511512515513511510512513511510513512518517513518518515510502499503510513518518514509510510512513515513511512511513515511510513515512511509510513513512512515515515517513510504507510510513512512515515511515516513506508510511513512513513509511510512514512512512514511512514511510510512513513513511510514516512508510512515515511512510509511515512512512513512511512513512512510512511513512516514513511511512514512512512510511512509512516514511514507500507512512515513515514513512513511513512513511512511515515516519513511517516513499496506514504506506515518511513513514515513513514514511512514515512511512511510511512513512513512511513515514514512509507510510508515514515515511510506511512512514513514510511512513514512514513510511515512513512512510510514511509511513512512512513512514513511512512513512512511513513510510514511513511514511512513512512513510512515511512512514513512509509510511513515513513511510511511512514514516517516512507500504510513514512513512511511515512512514511513514512512511513512513511512511511507512512513512512511512511513512511511513514513511511510516513508504507508512513516511513515516512512512512511512512510511512512515514515515512509508511510511514511514515505505513513512513513515512510512512512512513513512511510510511511515513515516511509505508513510511508511510507512518514511512512517517517515503502506510513514515513512513514515513514512510510511511512513515511512511512512513512513511510508511513512512511512512513513510512512511513511512511508512513513511510513514512508513510514516516515507506512514510508507517516514509513515513512509511513513511508507512514514513513512513514509508508510511513517512512510512510510515513515514508511511507514514513512512509512511510512512512511511511511511514514512513512511512512513513515512511513516518517511507501507512515518517512509502504510515514519518519515509505507507507511513515512514516516517511510508510508511511512514514513511511510512511512511512511514515515512511511512511512510510515516513509511512514512511512511511513514510517512509510510508512513511512512513513514512512508512515511510510514510510511512510513513513513511510513514512510511511512512516513511511511510510512513514512510513512510511511512512513512512515512511512509509511513513515513508510514513514514512511509508513511514507511515515511510513512510511511514510510511510508516519516521519508512513505497500508514515512515513511512514513513514514512515509513510512510511512513515517518518506501507511511512511512513512510513513512514510515512510512512512513512509510514513513513514515513511512509511511512514511509511512513512512514513511508513514511514512511512512509511514514512513511511513511511510510511513512514513513513512511511511511513513511514512513511515519516518515501496502505513514512512513512512512512513513514512514515512512515514515511509513513507512513512510510512513512508513515511513511510512512511512513512509510510514515514515515509504509508514519515513513508511514512513513512510513510511511510510514513515513515515510506506509512513513513512514512512511511513515516512516510509511511512513513515511511507511511512510513513511514519518518507501509512510514513507507509511513511513516515512513513511511513515515513513510505512513513514513513510511512510509511509511516514514513512514512512510511513511510510509517518515514512509509511513509510511512514512513512515512509508510512511512515516512511509513512512513512513511508512510510511513513513513513512512509512510514514511512513511513512511510511512516515516515515506510514514512507499507510512514515517516515509502507511512512513513513513515514512512513511512510509514515513511513516511508507507510510509516516514513516516512512513512510512510511513511514512512511512511515512511509511511509517515510510511514514512511511512512511512512513511512514512512512512510509511512512512512512512510513512512513511514511509511512512514514512512510508511510511512510513512512514513512513512512512513511511515521518513510505504509512510509510514510512512511516515518514507508507508512515516513513512511511514516516513515511511511511511513513512510507509511512512513513511513510511513512508513511514514514513512512513511512514512512512511513512511512514513513510510508512510512511513512513515511509509512512513510511511515514512514511509510511515515510510511514512514513512513510512511507514516519515509509502506508513513512512511514515515512513511513513514513514510508510512515514512512511511513512511515513512510511510512512513511510511512508511514520518513514511509507507509510509510514512514514514512512512514513512506509510511512514514514513515513511509515516518516514507504503503508515518512511512513513513513515515514510512512513513512514515516518515508505501504509513516512512514513514514511509511511513515513512511513512510510512512510513514515513510509512512513513514512511505512512515512512515514510510510513514515512511507505512515514515514510508509513514513512512512511514510507512517512512512512516516513509505513513512513510512513505510510510512512514514514515512516513509512511511512512513512510510512510512509511509511511519518512514512511512510512511521516513509500503512513511513514511518514508508510509511508512515515515516510509512513510512510510511513516512512513511515512510513513509510517510509512512514515516515513510504504510511513514513508510511514516514509510511509514515514514511512511509512508508508512522519513517516514508499502504511513512511512515513512512513514512515514513510509513517512511514514513515508508507509512516514511513512514512510508513513513516511510516518518514505503505508511511514515516512509512511512513511512512515515516516510508510513512512511511512512510510511512514518513512511507510514513516514513512516518514508501498507511513513512515511510513514515513515516515508505512513510511511515516514514509510509512516515508511511507512512513513513512513516511509510512511507512507508524518515517513513513504501508515513514517515512512510508511512513513515511513511510511512515520516514511502506510513512506505512515513514510512513513514514510512512512511512511511512512512515512512511513514510510511512514513512512510512513514514512508508510510512512511512513515514510510510511515515512511511512508511512512512510512513512512513513515513513512509510511508510510512513509511512511511514514518519521520517501496499504509513515514516513515515515516513512511508511511510510511514512514512512511513511516516513505509508512511512511514513512512513512515515516509511510511511511509510512511514512510511508513512513514512512510513512513515512512513511511513512512513512511511508512513514512513509509513514513515514512510508509512512514514514512514516516512503502508511512511512512515513513512513507510513515515512512509511515518515509503508510513515516514512514512513506505511512511512510510514518513518514507506510513511512514513514512512513512508512510512512514512513513512513513514512510511508510513510510511513511513513514511511514512510514512513511509510515519517518509502504503507513511512516515515516515512510511513514511511512514513513513513510510511512512512514514513512510511509510514512512516513512511509513514514516516517510508502501505510512513512512515514513512513514512512512514510513513514514511509511513514509511511514515512510512511515519518511508498502509512513514511512512513515517514513515514512512511510510511511512510512513511514511510511512511512512515511514512512512511513508511511512512514512509512512510512511514513512515511514513511512511511511509510514512512512512515516511507509511510511507513514513514515512514512511510511513511512512515515513514512512513513510508500506510511512513511514515514513513512512511512512510510512512513513512514512519515507504511513511511513510511513511513512511513512511512512513511512512512512511511513514513509510516516512511508506510515513510512515514512512512512515513510512515515511513511505510510511510508507511516520518516513501504510513512513513514512513512513512512512511513511510512511512515518514511507508511511512514515512514512510511510510511512513519515513512511510511510515507507512509513514514511513515512514512514513514515510511511510512512511511510510513512513514510508510511510513512513516513512513512507506519512510512513510512515518520524513505497497499509510510514517515519512511512516517516511510511509511514513513515512511515512512510506511509511510514514515513512511513517510507510511513512511513514509507512513514515513507511512512513519518512511512514507511511511514511511513511511510513514510509512513510512514509510511514517515512511511509513510510511512513512520520510508504503513515512515504511513512517510511513512513514513513513514512513513512511511513513512514512511512511509512511514515509509511512513511507511515514511511512512512511511524519507504511513517512505510507510512513512511511511510513513510505521519515513511512511511510511511508511513512512513515512513507506515511508508513519513515514511510511510512512512513513512512512512510510511517516515512511510510509512513515513506508514516517518517508501508510515508504508512514516514508505511517518515513513514515511514516516512504508509510512512510509510512510515513515512513516512512515505505510511512510508513512512516515515512507511513513513514514514512508510509507520514511509508520515510511513511512513510508512510512515513511512512511513512511512512512512511507514514512511513511508513513516513510511510513512514515519516512504494501509511512519516515513513514512515513508512510511513512513512508513514514517509505514518513511512512511510508512512513512514512512510508511517514513515511511510512512511515513512511514519516513507501508510514516511508511513513513512510511511515515519511509510513512512512512512515513512509512511511512512511511510514515517511510512511509510512513509513515512510511512512508508511516512516512508515514519509508514511510510512512516520515516512500504510514512511510508511512512509511514519515513516512511510508512514508508511511515513510514513511515512513512509511509512512515513513513512511513511515513511510513512510512513511511512512509510507512513519514511511512511513513512513512512512511510510514514512510511512509511512512517513514513508510512509513512513515517516516514507499505508510519519512510513515508508508510514512514516518512512518519519515504500503506511511517516512512514511513509512512510508513523514512511512511510510507509511516516512511508511508519521513513508507511509508512512513511512514515511511506511515514510512512514512514510510512516513510511510510512514512510509510516511511512515511511512513514514518514508508518518512515506508507503510512508513512511513512516519518513504502509510509511514516514511512510507515519520515515515512512507509512512513512507514513511514512512510510509513511511510512513513513513512511510512513510510512513512514513510514513515513513508511511509513511511513512511512511509513512511510513518518512511510510513513511512509513513512509509507507518522522521513504501506507511508509514515512513513513512510510510512517515510509513511519521514508504506512519520511509510508512510514517515516509511511507508514513513510511508512513510510511512516512514520520520502484512518512516515514516513513511512511515511518517513505498502506520517515509512520515511511510511513512511513514512513510512512514516514508511511512511509507509513519511511510510515511510513513513512514512511515511508512519514512509514522520515508513514500503510499507512511515515510512513516515515515517515513509507508507508514518515513509513514512513513512508506514514512513511513511512510507514514514513515516514506509510509510514517513512512513512511513512508511514512509511513512511513514511511515513510512512511511509509514514512513513511510514514513510510511513520516514508505508512514512511512510515512512514512515515506502511514512516521514511510512514506505513512511511511512513513512513515513515512512511513513510505513514520520516514510498504508512513510507511513512515512512514512513514512510513512513511513515514511510509510512511511511511514514514509510513510509512512512511514514512511512514513510512511510514516515509513514511512511515512515513508504507512511512511508511513511510509511524517514511512513513513510512510508514514512511512510510509518515513512511514511511507511515511512512512514513513508509512511512511513512513512513512512508512513512512515513511510512510516512510509507511514513513513515514513507513511513512517516519515508493506505507511515515513512513512515514514513513514513512512511511512512513514511513512511511510511514513513514514516512509512513512510512509508509513512511510511508513512514515515513511513505511515515515515515512513511506508514511510509510513513513512511514512512512512512512513511512512512512511514513513517518516510499502509508512513513513514515515513510512513511516511509514516511507507515512513508512512513512512512512514512510508511513511511511511512512515511512512510513515517511508511509511510510518519516516509510506509507512512511511513512515511515514510512512513513512511513512513513512510511511512515513513513513507509515513512512510513512512514518511515515508507513518514511511505506509509513511513513515512513513513511517513507509508515518510511511508513511512512510511512512518515511510513512511511508510513515515512513515505508513511510512514512512507509514516513512510514516515513512512508511512511511512514512510512511512514507514512513513508509519516514512512511511513514512509508505512514512515511512509511512516524514505507507511511512511512516522521518511498497504508514510511513513513515513515515513511512509512510512513513513510512512512520512515511505513509510514512511507510514514513513511513513511512513513513513512512511513513512514511507510511512512512511514513514510510512512509513515511512511508512511510511511513514514512512512510510513514511511512509510516517513509507508518518512509511513511514512511512513508511512509511510513515509509512512513514513514516516513511512508510506512512507505513523519523519511499505508508511514514515515516514510504507508509513517514514514511515516515516507502501515514512516513510511507504505516523515513511512511507512513512514512513512509512513513511512512513511510511512510510511520516516515514511511509511512510509512512511512514513512511511512511511512512511513512512512513514512512511512513513509513513513510510512507513513512516519510510511509512510512510511512512512510510512515516514512511510511513512513511509506509514519514512508510515519511511510508514515512518511511509499505509512513516512513510514513512513509514514515512513513512510513513511511512513511512515514515512508510513517519515504504506504510511512512513510510513511515513512513512511512511511513515514510509513513512512512514513510509512510513518514511511513513508507518517519514504500504510514514512513507516516515511508514510514517514508509512513512513512510514511512513513511512505510516512513512512512511512511515513512515515512515516511510507501503505511515515514513512515514511512516514513508505508517520519509506511509513513510513511511511511512513513512515516509510504509510512512512510520521511508510511511513510511511513509511512512514515515512512512512512510512512515515511513512511514511507510512513512513513513510511511508509511514516513512512514513512511512512514510512512511512512511511509516515510506508519516514510509510511514512512510512512515512513517515511512512512509508507510511511518516514516514508501505508513515513512513515516515512512513510511511513512515512512512512512509512513512515513512510511510511515515511508510512513512513511512512512512511513513510511515511512513512512514508509512514515511505511513513512511511516512521514512507513508512508510511512511511512513515514512512513513511509515512512513511511511512510513508512517514521519508505504513507499509512516513514513513514514515513513513514514510508508511513513512512515511512512515513511511510511511513515515516516520516512513502500504504506510508511516514515514515515511512511513512512512510511514513514513511512510511510511512512513512513513513511512511512513509511513510516515509512511507509517518517513512510504507510512516511508516520509509510513512512512514512509511513511517514513512507516513503506515511515511512511512516514512513513513511512512513511510512510511511511510511516517511509507512513511510513512515514510511512510511513512512513512510509512512513515514515513510510503515513512511509510508514516511512513510513515519513507512508509508531526513504497504509512513511515513511510513513514512512513511516513515513502510514510509510514516515514511515511509508511513511511513515514513511511510511509513512511514514512513515513510507511513515514513512511509512513510511510513512512510510511510515512513511513512513513507510512509509510516519512513511513511512512511513510510507512519516515512508509512515512510513505509513515514514512508509512513510512512515515512513512510512512515512511512510512512512513507512510