511514513514515512513512513513514511514515512513512513512511512514512509510513507510510508511509511512513514518518511512512511514513512511509513513512515514514514513511511512511511513512511510512513511512512511510512512510513512512511511514511511511510511512512511510511513513512511513512511512512512510511513513513513513513514514513513515512511511511512513509512507508507510511512512511511512512518511512511510510512512513511511512511512509513515514514511512513513514513511510511512513512513514512510513515512511510510512511509512514515514512510510507508513512514510512512512512512511508511512515515511512512511514514513512513513514512511511512510510511508508511510512512516513512512511512514514513512515514512511511515512513515511513514510511507508511510511510510511510511510512511514512513513511511514512512515513513514513514518516513512511508512510510511512512511509512508505507511511517517513511513512513514514512511514513512509510510511512512512512511513512510511510510511512511508511509513515511510508509514516518513513511509512513513511510509515513513512511511511511512510513513513511511512509512511512512511513514515515511513513511513510511513515512512510511514515510511513514511512514517511511511513510509511512514513511510509508510516515512511508509512510510512513511511511510512514512513510511512512509513513515512514512511514517512509509511512508509512514509510512511513510510508510513511512511512512512514513514513512511512513514514513512512512510514513510513510513514513512513511512518513512513513512511510509510512511509509508512510511512511512513511512513516513513513512512513512513511513512511512512511509511511510510512512511513509510512511510508510512515512511512511511512516516515511510511512510510511512509510511510509514511512513514512514512513514516518517512514513510513514513512511513513512513513513511513512510511512510509508511511507513511511510512512512509512513512513514511515510514517515513511514515510511507508511512511511512512511510513512514512515514513514511514511512512511508509509510509508508511514515516513512513515517514515515512512512508508512510511512512512512512512513510509512515513512514510510513512514511510512512511512512515511512509510512512509511513513513513515512512513513513511513511513511509513510511515515514511511510513509510511515511507512513515515512514512511511512512510511512512511511511511511511510511511512514515517513514511512516512512511512514513510512512513511510512511514515515509509512515513512512511511510510511513511514514515516511509507509511510509510511514510511513516515513515514513512510509513511511512512512511510512514515516513515514513512511515514510510511512513512513511508510508511510511512511510510512513511510512512512511510514510508509511520518508509511514518515515516512512511515512515516512507506507510513509511511512512511513514510512514513517516512513515512513511510511510509511512511509511512510512510511514512512512512512512510510514518512514512510511512512515512511511512512509511511508509508514509513513513511512514514514513513510512515514513516516514507507512512507509510512515509512510508507509511510515515511513511513516513511514511513517515511511516511509509512513514511511511512512508507510515516514507510515510512512515514513512513511509512516513515515514512511513513510509511513514510509511514512511513514512512511513509511509509511513513513511512512511511510512511511511512514511512512514513513513517512512510512511509511514513512512511512515515513513513513512511513511515514510509512511509510510514516517520515515511512513514509511509511512505505511512513509511513513512512512512513514515514512511509509510510511514512511512510509512510509508513511511511511510510512514515515513514511510513513514515512511510515519514514514513511512515511512511511513511509513512512509511511512514512512513511512512512512514515512505510508512513515512513508510513513517518514510506512511510509511510514512512512515516513513514512511510512513514514512512511512511509511509510511512510509511513511511512510513512512514514513513513513514513509508510512513513515513515512510512512516513506506512512512513511511511511512512513512514511511510510512511512511512514512512512513516509510511512512513515513510510511511508509516514516511510513512512515513513510510513511510511511511509510512514513512513511514514514513512510512510514511511513512512513512512509511510510508511510511513513513512513514513510510511512513513513514512513514512512510513511514511511512511512512509512512511513512511509513512513514514514512513512510511511511510512512511513515511513515513512511512511510511511512513512514512511511510510511511510511511510513512514512512514512513512508511514512512511515513516515513515513511511509510510510510511510510508511513512511511512513514511511510511518516513509510512511512513513511513513514513512513515514511510511511512511511512511513513512515511512515512510511513513513514511514513514509510514511502493495499504505508508510512513512514515513516515516516516516514517515514515515515513514514514511512515514513513512511513512515513512511510512514510511510511512512513511512513512513511513511512515511513511514515514514515514512513514512511513510511509510509510511511511509511507509509513510512511514513511510511511513512512513511513511511513512513509516513513511511510512513512513517514512511510512512512510514516513513512513513510512513511513514514514510513514513513509508513514514512511512508515512512514507508506511514515514515513515513509513513514511510512513511509512511512514513512512513511510511510510513513509510510510509508511512511510508510512512510515514511513517518512514516511512512513512508509512508513512513511513511507512511512509511515512509516514515511511513515515513518515511516512511508508512512511510510510508511511512512513514509509510512514514513514513513513512512510513513512510513513512513515510512511513511509509508509510511511509514515512514515514518512513514512510510510512512513510514513512512512513511507512513512510510511513508506512513511513511508510513515515513513515515513511512510512516513512510509509512513511510513512510513513512512513511511512512512513511512512509510512514513512512514513512511512511519513513510511511511511511516514511511512510511513511513514514513512510510513512511511512512511515511510512511510513509513514516512512513512511510512516515514510513512510511513513510510509512513512512511510509511510508509508511510509510509513516521516513513514514510509508511513511512521513512509508512511513512512512510511512514513512512514514512512509512510513515513511508509513512511511511510510510515515512511513513511510510511511513512511510510512511511511514512512512513515514512514511512508511513513512511511512512512510509510512515515516512509509515515513512509513513516515513512507512517512512509508510510512513509509509509510511515513514515513512512513512511511512514515514511512512512512511512512511511513511514511514514515513513513512511510508508504508511510512514519515512514514511508510510514514515513511513513512512511512513514512512509509508511512516516512511514514512512514515511511513512512513511512511512514511512513511510514512511508508506510507512508508513512512509508513515518517516513512513511510512511512511515509511513510509514512515513514512512511507510511512513514513515514513513512512511512512514512513512511513514514512512512514514515507512522516515511505509512511511512507509512513512509512513513511511512510511509510512513510511513512514514512512513512512512514510513512512512512513512516514512515510510511509510512511516512512512514515512510509509511513513512514515515509506509516512512513515509512514514512510512511510511511512511509509512511513516515515512513513514512511511511512513512513511510514513511510510512511512513512512514513513513515513512511513512512511510512511512512514510510511512512511512512512512510510513513511513514513512509507510514518513507506521511505509511511511511513510506511512513520519514511512512509513513513512512511512514512513511511511511511510510511513513513511511513513511511510511509509510511512511515511511512513513516516515513515515512512512511510508511513511515519519508508512512511513513510509510509511510510511511513508511513510509515520516513512512510511513512512513513514512509511511513512513511511512514512512512512512513512512514513513511512510511508508513513511512513509512511512513513512513512513516515513513511512513514514513512508514510509511511513510512513512511512510513510513511511510510512512512513512513512513515513510511509511511513513515513510507510506510513516510513518515512512511511512510511507502508515520518517518514511509512517513512511511510512510510512512511512511512509512508512510510512513512511511512511512514512513514515514512512511514513512512513514512512512511513512510511508507514511512513517515513510504505511511516514515514512511513512515513512512512512512511512512513515512513510511509511511512511508509510511511513511512514514511512509508513518515510510513512509510512512512512511515517514511512514511512511511511513514513512515516512510509511509511509511512513510510513512508515516511513515515513515512513515512510508510509513509511512508513512511513515512511513515509511513510513511512512511512512512510512513511509510511511514516510511514512510509508513513514513513517516516511510513510511510515511511509512511511512512512510512516515512509510511511511512510511512508510511511510510511511514513511512516513512511510511511510513511512513512512512513514513514510510510509510513515512510511511512512513513515512513519515512512510511511514515510510509508509507515513512515511511515514511512511508512516512510511511511513512510511510512514514516515511512510514511512510507511515513511512511513513512513516515511512510511510514513512511510509510512511511511511511511512513508513512513515515513511513510510510511514512512515512509509509506508513513515515511509510516516515513515513512507513515514508511511511514516512513508511511510513512513512515518514521519522523508500492497499508515518525519510515495492508512515515515513513515515515510515517520517515510509508503509512512513514512509510507510512512513512513515513515515513510511518515512512516510511520506490497505511516516516515514516514512512512513512512512507507509514511508509514515515513515515518507509509510509512511513515515513516514509512513513516513517516514519510508513506505511513511513510511512514511510512512512512511512512511513512519515508509511513512512511512512513512514514513513510514515508515514513510512514513508510512512510510510510510512514518513511509509510511513513512515510512512512519514510509509510511512512511513511512512517517508512513511514513512512511511513515511510511511512511513511511512513512514512514515510515512511512510507509511514511512512512511512513515513512514513512512511510511510509511511511514511512512514511510512515513509512511513512512511513511513511514509511513514511513514512515511507514508510515511511512509513511521516513512507513514513512509511509512510511511512511512512512512513510511519513505509510510512512510510512513512514511514514512512513512514512511510510510512512511511509511512513512513513515519512506507511510511512511512514514514512511511512511510510510510512510512515516514512512515515516507509507509509510511511512512518514509510514515512511513516515513512511513518513507510514515515512509509515518511508510511515508507511511510509505512512510512512516519517516518514512515513513512509512512509512512508505507509509512515508511512515511511512510513514512515510511512512512514515515513513510512509510513513511516516512512516513512509508509511511514511510510509512510511512512512509512512513514513513512512513513513512513512511511511513513513511509509510509508513512513510511510513512507510523517512510511511513507509515521512510509511511511511510511510512511510510511512511513513510512513513514509512511511510511513512513514511512512515518514513513513513511511511508508510513512512515514512516515517511507515518515511513513511511512516512511511512514510511510511512512513515516513510512511513516515514513512510511512513512509510509511508511508509509507513514512512511508508510514515511511514511509512512509512512513514512512506508513512514512515511511514511513514509508513513515516513507510509509511513511513507510515512511510512511510515513513514513511513515513512512512516512515518518515511510510512511511512512512513512512512512513512511512510512512510508511513510517514513515511508511513513511516511512514507512516513512510513513514507508512514515512512511508511510511514511512512511513513515515511509512513514515512510512508508514516516514511507508508513511513512513512514512510507507508510518516517512507510508508516515511512514509516515512510511510509508511508509512509510511511510512512515515514513514513511512512519518515513512513513512515515511511514514511509511515510512512513514510512513513510507508512509509511515510510511515515515514517517514510509511512511511510510515515515512510510511511515514516514510511508507503508516512515515512513510510514516514513511508513511509511511508511515514513514515515511513513510511512512508513513506511513515509512519515510519512508508506504511515514512512510510511509517514510511515518515513509513511508512514512510510507508510518510512513515511511514515516515509510515516514510513515510513511514509505504512518515514512511511514512512510508510511513515513512509508507502503507519521518514511510515513514511511512518514510512509508515515511511516514505510513512510509514516514511508516516514512508511508513508521513511516516511506513512509513513512511511507509515513512515511511514512513513511511511509511511513514507511510499515515521513516515503507503502513519511518520521516511511513509513515513515511506508506512506507506511518521520518510513511510512510513514509513516512517509508514515511512518516511512515514511511511511511512510511508505506510515518516511515515511505508505511513519512510512512511509512510506515519510508507515516515516512512515507511513516510508513512512511513515513513511513508506507510512519522517515511513510510508511508509511513512508506515510512512516512512512505500517523519515515512512510508509507509515518519513511508513510510511511514513513515510510510515510508510513511510512518515511508512513514511513513515513511511510515510510512511510511510512520511512519515512512510510512510514511510511511511509510509511513514513512513514509513511514516512510513515512509505509513510514512511511515511513523513510508503503514518513509508508510509518521515508517520515509509512511511511513513513511511510511511514515514511513511512510510510511511512511510511510515513510512511515512512513511517515513511511511511513514514515515517514512510508513515510505507509507513513510509516519512513513515511514513511511511512513511511511511514515511510503506506505509524527517513513511506508512513511513512512511513515512512512512511512512511512513514514512512511512510511509509512515513510508510511512512512512513511512512511515512519514511509511509507506511511517516515504510522519515511510511513512511508510508513511512510509512512514510509510512518520513512516511512513514513513512511514512512512512513511511511511512513514512512509509508510508504508509513513522516510508508510511511511511509510511513513516519515516515515512508511518515508516518509509511511510510510513513513511511516515513512509511511510511511513513510512510511511513513512509511511512513514516513512512512512512512512513511514512512511512512511511511508504510517514514513513512512514515512512511513511510511515513512510512514514511512512512510512513515511515513512512512512511512512511511516513511510509511511514511514511512512508511512510512512511508510512514515514513513513510513512511512513516515515511509515511513513512513511510507507512515512515513512510512512512511516510510512511512512510507511511514513512512511509510510510520512510512509510512513514513515516510510510512512513515512512504502511515514514512511510515517514511511512513509512513511512510513514511512512512512515513516518512507506506514514516513512509507509509508516522515513509509513519518516514511510512512508511506507510514509518519511510512508511512518515511508505512517514509511515514506511512510508518517512513510512511509510513515513509512515514510511513512513511510511513514511512513512514514515511511509509511510512512515515508511512511511511515514512511507510510512514510512509510512511513513511512511511508508512514514513515512510510507512509511515518518514515512512510511512514514515513508510515513510509513512511511508510510510512512511512511510514512509518518512504514514513514513508512512512510510509509507514519519511511511515514514512514510511508512514515511512511512510512510508508510515519512511513513512511513511512513513513511512512512512511509512512512511512509507509512511511509511508511510511518519513510518514509516507510514517521516511508510516512511510509512506512518513516515512508508512509509510512517513507513514511512513513514511509517513507502511515511512515513511511511514512511511510510511509504511516511510514512520518517513509512510510509509512512513514510510512511509513516512512513511512513511507507508513519520515513513513515512510510513506509517514512512507510508508510507512515510513515515520519513511510513516513511511511512509511513515511512511512508511514508509510512511515516512513515511511514509512513513512516514507508512515510511511515513513513513513513512509506505508511515512512515515518511502511517512512511510512508513515513511511509511510510511515509513512510511514512511512513514512511511511512511511508518516513512513512507509510512515513512514511510512510519521516512510510511508509511510512517516518514508507500499515513519510518518519523512507510512510510511509510509511511513510511510510512511511515513512513511513512510511510512510509510510513515513513512513512514513512517515510511509514515516514513516512511511512512511511510510510510511509510512512512514519515511512518517510506516517510511511510510511511510510511509510510512511511511513512509512514512515518513513511512510514513513513511511513511509508509509512513513518515513511512511510510511512510511513513513513515511511513513513510508512513514510509511512511511510510511507508511515512516519514515512512513512509511519517514508509511511513515511513512510513511508512514513512514510512511511510512509510512516515510507511510512512511510512513510509511510513513510513516515515514515512516516512513514512515513512511511508508508509511514512512511515512512515513509512515515511508510513512512511512510510510507508516518516512515508510511509511516510515517510512516515516512511511513512510511512507509511513515510508512510511509512513511512514513511512509509511511513513514514510512512513515513512510510510513515513515514514512510511515514511513512512513512511512511509511511512514510511512512509512508512512511519518512512511512512512513512511511509510510509509511512510511508512511511505510518518509509514517511515519512513514512510511513512511515511511508512512513513514513512511510508512513512510512512511510508516522514513511512513512511511510511509511510510509510512512515517514513511511510512512514513514511508509512511511513515512512511511511511511515515511512510511512511515515511510513517513512514512507507509511508508511509509513516522517512511508512512511512511516513512511513514515513511507511510509518515511512512510510512512511513512513512511515514514514513513510508509511514517512510510504508515515513514515515517512509509507509511513512513518512511512514511505506512517516516514514512512509508511509509514514514509515513507510511509507510512511511515517513513519512514509514512511511511514510511511510512513512514512512514516512511510511510512515511508510512511515513508507515518510505507505509520519518514509508509514514515512509508507514519513510511513511516513513509507507516517516511511512511512512511512512513512512511511511513509511513513511512512511511512511514514515514511515514512511512513507511512513514511507510510514513510507509511519512511513509518514509508507514515514511511509512511511512513511513511513513513512513514512512512510512514512511511511513511512511511512513514510507510512511510516525516513511512509509509512513512516509508511513510511512512511512510511510512513516516516513511511510511511511508507515514512513515514515512511513512512511510510508512515512516520516510511510515511510511511511512512512509511512513513511511508514511513512515513511507503509508522518510512513514514512513513513512511511512511511511510510510515512513512510512513512513513511513510510508513515514514514515513508513512510511512514512511512512511512512511511511513513514515511512509511510513512512509512512513510512513514511518515512511511510509511511513511512511514517513508508511511511509508511514512511512514515515513513515509506513511515525515506512513510515521515517514511511510512511508509511510509506510512511510510510510510515518517514514514513509505510513514511508511513512512512515511511513518516513510511506512513513513512510511510510505511511512516518521510505508513512511511511508505519516514518516512508505513510510512515510508512512504514519520515510509509510513509515518512504511515509509510513515512513512511512514514512511508508512512512513514512513513512511514513512513518517511514515510511509512510512512510510515515510511517513511508512510512512513512512510512512513513511509512511508506510512510513513513513510507509511511509511513517512510513515513513511507512515514512517512513513511508508508513517513511511512513514511513513513512511511512512514513511511512510510513515512509515517508501511513511506508515511513515512506508511508512517520525519516513512513510513510504512515512507510509515512511513514515513510510514511510510510509510511514513511512512512512511514513512514515511510510513515516511512518516512507510512515514514513507508515510509511512512509508510512512512512512511511516514513515516512512510511507505510507513513520518519521514511511509511510509511512512513512513513512510510510511508514512512509509511513512513512511513515512513512512513513512512511513512512510512510511512513511510512514512511512511512514513514512511512514512512511509510509512511514517512511512511509510513511513512511510511513512512512511512513513513514514514512513512511512511512513511512514513513514512514512512510510512510509508511514510516515511511512513516510511512514514511510509511510511510512512512512515515513513512513512512510512514513507508513511508514515515509507507507511513514514519521515511511509504505516511512511511514510509510511512512511512512514511512512512514514514512514513513512511514513512512513514511512512512513511512514513512512512512512512511508510508511512509511513513514515512508508508512511513513509509511511511511516515515516512510511510510509513518518513510502508514513517527510508516514511510510514511510511511511512514513513513512514512514514513512511512512511511512512510513511512511513509512507511517519513512511510507511512515513512513515511511512508510510519513509508509513507511510513515513518513512512509512508504514515519516509516513513515513508505510510513513514510512515509511515512510512507508515527521504500514504513514518509508507512513513511508511509504514525515511514515513513508509513512509509515515515516511510510511513514510511512510516511508511514513519519507507509511512508510511509518512504509513502509514508513514520521516519514511514511509508508512513512515511508512513513512510511509512511513510507510511507509520517511519521517517520518508510508515512508512511510510509508508511508510515515512511512512512512512510511511511511511510512512512515511508512511514512518511505512513515515515513511512512515510517516514511512512510511513512513512516510518516514512510508512511511510511511512511511512514511512513511508508509510511515506508518517509512512513509508511512513515512515515514508510516513511514513515513513514514515514514510508509509511508511510512513514509507509514517514508507505508516518520512511511512512511512509509509509511515520511503510511517520512513511512514511510513517515515510508510505506507515518515513511515513513513510512512504508518511513522515507505508511511521512507511510511508513515519511503511514512510511518517517519518512508501509516519518516512511512510510508513509508511510510511511514513512514512510513517514507511512513511509513516509503504509517515516509514512513520516511515513512510510506508508513512519517510509520525519514511504509510508508514509508513515513515514511504507507517521515511512511511511514516511505509510510517511506509511510516515518512511512511515511512515515510513514511508504512511515512513511511512513515516517518510510510507508509509508508509516531523519514508510509509511510514516511505508515515514512511511516508505514515512511510509510513514511510510512511511510509510510508515519514508511518513520519510508509511507513514509513512510512510512513513512511512508509513513517511510508506513526521514515512513512511512515508509504508511515521517513507513515511507515513510508514513508512515510511510509508508512512515513513512515512508509517519510511517515514511511508508510515514509509513509511515514509510515514512508511507510512518514511512516509509515511513511512510512511511509515518515509515512510508511514511510523515506512511507512515514510512510511514513514510508510509508510505515515511511513511515516510510516516517517513514509510513512509507515512515514510509510517509510513514509510517513511511512509510512510512510509508515514511514515514511509514515516512510510510518515518515514510511508511509511511513512512511512508512513510509509510512511512514516513512512514513513515514514508510513512510510510505508510512518515511508508507519516523518513512512509512509507508503509515509515522516511510507515514513515511510510509511513513515517514509506509513509508509514514510511519514512512514511513513512507511512513512514509504511509510511512512515515513510508512514513514514514515515515514512514511513511511510508511509511516514512512512515518515510511511513511510510508509509511515510511515516518518514510504516517514513511508508511511512512512512516515514512514514514513509512514508508515514511511508510511510508507511509508508511512516515515512511513510507521521518516515512514510511515510510510510508512512512511512512512510513509504513519507510514512512509512515512511511513510511514516514513517510506505509518510518520515511512510509511520519515512510506510513512510512513510508510510509516518507509512507510513511513511513512514509515517514509506510514515517512509509516517516509509512511503504510507515517519515515515510510510517513511514513511511512514513512514512509512511512513512513514513511511508508511510512510512511510514514513511511511509508509508515515516515510513519515515517511511513512511512511515514511511508505508510514511511513519511516514513515512510508509515509508511514512508507513513513515513512512511510507508513511519523517512510512514514511509514514510511510510512511511511509511508510510513514513513511512512514513511512508509519515515518513509511512510506513515512513518515513518512507509513515510511514512511510514508509512513507514516515512512509511511516515512509507510510513513512513513512511514512518514513516514508509511509508510508510519514514511507508511508514512511515512512510513511513509505509513512519518510512512515514513515513513510513514513512514512511513517518515513511510510511511513510508508508508510510511511512513511511508513510518520511510511510514510511511511511511513515513517515514512512510511510511508510514514510512510512512510509515511509511513512513513515514513513512513512514513512510510510514515512510509511509509509514513514513512512515513514514513512506500511521513519518512513511517516512510508512515512512509507512510510512513512512512510511513512511510512512512512510510508511511512510511511512510510509511511514512507508513515518513512514518513514512511510510508511516519514513511511512511512512512515513513512512513511511512513517510510512512510510510511510512512517518510512511510510518515512512514509508509509512513515511511514513511511511511507509510513515515513515512508511514514511509511511513511513511512507511512512511512513512512512512512513512512512514512510511511512511512513513509510513512512512513514513512510512513511512512512512513515515514511516512512511512507511514514508511513516518514511510511511510511514511509512511511510512512511509510511513517517509505508509512518517512511516516514510510509509512511511512511512514515516517512511512513510512514515512511510512509511511509511511509511511511509511510511510513515512512515515514514512515512505509511511512514514511510513512512511509511512514514514514513515513514514511508518514511509511514516512511512512513513511509510511513510510512511516515518508511515513513514512511510511510513510509511510512510510511512514512514516514511508512515519515511509508509509508512513512510510511510508511513512513512514513513515512513513512512511510512513511513512514513512512512511512512512514509510512511512512511512511509508510512511512513511510507511516512512514515514513516515513514512515508512512512513512514512513513508508510511512512515511507507512513510512516520518512513512511510507511507510515514512512512512512512510507513515514513516516513511511510511510510512513512510510512513513512513515512514511512511511512513512513513512512513512512512513508512518516515513511513512512512512511511512511511512512511510512512513512511513513515512510513510508510512512512511511513514516515509512508507511512515515513513510512512513516512512513512514514514512511508511509515517513508512512514511512512510510511511512514513511511510511511512511510511512513513511515512513511512512511512511511511509510509509511512511513511513514513513512513511513515513515511511513512513514513513513513511513512510511511513512512511510513512512512512515514514514512512512510513512512511510511510510510512510513513513513511510512511509510511511513513514513512513513512512514513511511512512513511510512510512509510511512512513513512512510510512511509510511509510510513511513513513515512513514512513512513512512512510512511512514513513513512509511512512515514510512513515512510511512511512510512512513512512512514512512510513513513511514512513513513512513511513511512512512511511511510511510511512512512510512512511512514511513512512512511510512511511510512513512510512511513512515512513511511513514516512509513514511513509511512510513512510512511512513516516514512514510508511512512512515512508508516513515512511510509507511513512510511514514513514515514511513512513509512511512512514511513511510512513512511510510511511512511513512512512514513511510515515512512512513507511514514512510511512509507510509511511515518515508511513513516512510510512510511511513510515512512511512510511512511512511513514512513513515513513513515512514513512511512510511512511512512512510508512513514509513512511510510512511512512510511512513515512512513511512513514513515514512513513511511508512512508512513511511511511513512515517516512511510511512509511508511511511509510509512511511512517514513516516513512513511512511511514508509512510513513511514512513510510513512511514515514510511511511511512512513511512511511511510511513512512511511512512511512514511511512513514512512512514511510509511511511511511512512512512510513512514513512512513512512511511510512513514512513514513513512511512512515512512512511511513510512510512512510510511511513513513511513512515512512512513511512511511511512512512512513511512511513513512513513514513514514514513511513511513512511509511511511511512509512510509510512510513511512511511511512509511511515513512515513512513511512511511511511510514513512511515512511513514513512510512512513512512511513512513513512512512512512512513510511512511511512510508510511510510510510512510509510513514513515514515513514512512513511513513510513512512513513512511511511513513513511512510510510510512513514514515515514513515512512511511510510511512510509510510510510510512512512513511511512513513513513512513512512512511510513510513512511511511511510510511512512510512514512512511511514514514513513513513513512512512513512514514513512512515513511513512512510511511510511511510511511512512512513509513512513511514514511514511512512512512509510510509510510512512511513511513512516516514515515515515512511509510509510509508510511511511511510511512511515512512512513513513515515513513513511512512512512513513510511512510512510509513511511513510514511511513512512512512510510511512509510509509511513513513515513513515515514513512515513513513512512511512511510512512510510510511511510511511513513512513512514512510514511512514511515513514512511511512512513510510511511512512512513512513510513511512511511511511511513513513512513512510513514513512511514512511513512511511511511512512512511512512512514511513511511513513512512513512511512511512512512511510511511513514511512511512514513511513511511510511510514512511511512511513512514512513513513513514514514513512512513512512512512512512511512515512511512511513511511510510509511512511511512511510512513511512513512513512513512511511509511512511510512512512511512512512513513513513513512511514512512513512512510512512511512511513511512511510511512511511509511513511512512511513513512512513514515512512512513509509509512514512511511512511511514517513514512511512513512510510512514512513513513513513511512513511511519518513512511510508512512512512509510510508509512509512513512513512512510512513512511511510510512509510513513511513513514513513513515515515512511511514513513511511510511510512511511512513514512512513511512512512512513511512512513513512512513514514512511508511511513511512511510510511511514512515512511512513510511512512508512511513514513510513513513512513515513510511511511507510508510507510511511513511512516515513517516515515515515513511510508509508510512511512511511510514512512512512513514513515513513511511511512512510510513511512511512512512514512510511511511511510512513513513512513511513513511511511508510512512513512513512511510513509511513511512511512513511512511511516515513513512511513513512511513511514511511513511513510510511510513510510512511513513511511511512512513514514515517514515515514513514513512512512512511511512511511511511510511510511511512511512512513514513512511510513512511512510511510511512511508511508511510513512512514512513512511513513516514513513510513513515515513514514510512510511512512510510510506508511513513516513513513513512510511511511510511511510513515512513511511511513512512512511511511512513510509510510511511511511512512512512512513512514511514513511512512514513512511509511511512512512512511513512512513513514513512513513512515512511512511510512513515511513513513513513511513513510512513512513511513515511512511513511514515511512510505509511511510512513511513513511512513511514512512510513514512509511513511511512511512511512512513512511511515512512510513511510511512513512512510512513512512513512512512511511510512514514513511510510510512512511512513514511511511511511510510511511513510513515513513511512512512513512511513511515510511511511510510510511511514514516515512513515512512512512511513513512511511511512511510511512510510512511512514511512512512512513512512513513511512513513513512512511513513512513512513511511510510508510511512511513514512510513511512512513512511511512511512511512513511513516515512515512513512508514511509510508510511513512511512511513514513516514513513513515513512513514514513513514510510509511510510510510511512511512511510511515514514515514512510512513513512511511512511513515516513514512513513510509509511511510511512512513512512512513512512512510509512510509510510510511511511512513511511512512513512515514514514513513514512515513512513515514512510511511512511513514513515511511509510511510510511511511511513512512512512513512512513511511513511512513515513514512514513510511511512512510512511510513512514514512515514512514511511512511509510510510508512510511513512512511512513514515515514513514512512512510512512512509512512511512512512513514512512512513512511511512511512510512512512511512512511511513512513511512511511512511511510511512510511512512510512510510511511511512513513513513513512512515513511512513512512513513511513511512511510512512511512514515511515512512513511513515512511512514512512514512513511511510512513511511511509512513510512513513511511513513512512511511510510511509511513515514513514513514513513514511512512512510511511509511511509512511511512512512511512511511512511509510511512511510510509512511511512512513512512514516515512513512511512513512511512512513513512513515512515513513513515514513513512513512511510511509510511511512510509510512510511513512510513513514514513511515512515513514512513513511513511512513512511512511511513512513511512511510511511513511509512510511511512513513511512514514512513513511510512511511509509511513513512509512513514513515512514512511511513512512511511512511510510511511511511512511511512512513512512512514513514511512512515513512511511510512512512512512511511511513512513513513510512511512512513513511513512510512511511509510510511511512511511512513513513514513513515513514513512513514512509510511513511511514513513513511514512510512510511511511513512512513510515512511512513512512512512513512509512509511511509507513511513512512511510512514512514512514513512513511511512512510512512511513514515512512512512515514514514513513512514512511511509510512512510509513512512511512512512512516513510510514512511510511511510509511511512511514513511513512511509512509511513511513512514514514511511511515513513513510511512511511511510511511513512513512511512512513512512511512511513513513514512514514515516512511512513512511510508510510511510513513512513512511513513514514513511510512512512513512513509511511508512511511513513514513513511512512510510509511511510510514511511511512511511509516519513510514512509511512512511511512513511512514512513514512511511511513512511513514515510511512512510508511511509513513512514511514512512512513515514512512513513511511512512512511512512511511511512513512511514513513513513512512513514512512512512509510511508511512512512511510510512511510513513514515513510511516515511511512510511512511509512512511511513512512514511511512510512518515512513509511513514515513512512508511511514512510507508510514513512513514512512513516517512509509510509511512512510511512511509512514513512510512513511513512512513513512511510512509511512512514512514512512512513512513512513511511512513512511512511511511512511513510510511514512510511509512512513510511515513513514512513512512511513512512513512513511510511509511511513512511512510510512512513511512513512512513510512514510510512511512511512514511511510512512513513511512510510511511513515514515513515514515515513513511512512511514511509509510511511512511513511511512510513513512511511509511509512513511514511512512512513512515512512511513512513511513513513511511512512513513512510513512513513510512513513511510509513510512512511509511510511512514513514512511512511513513512512513512510510511509510510512512515514512513512513513513513510508512512511513513512514512513514513513511513514512514513511510512513514512511510512512513512507509507512518510510514511514511511512511513511512513509511510510510511511511511511514512511515515513512510512512514513513511510511511509511512515513513508507512516511511513513514511510510510513512512511514515511510512514514511507510511514513518515514513510513510511513511513512512509508511506512515512512512511510510510511512512513512511511513513513510513512513516512510511511510510512514515512509515515513513515508512513513512513514515515513511512512511511513510510513511509512510510512511512512513513511514514512513512510512510511513511510508507513514513512510514514512513513511510513515511513509510511510512512514513512513512515511510512511511513511509512514512512511510511515515516511511512513512510511512511512512512512512513514513512513511511512513513510510511511511510510511510511510510510511513512509513516514513513511512514512512512516513513512511516510511511512517514514512511512514514512512513511512513511516512510512513509505507510507509507511511511512510509510512516513513513511510512516514514516513513511511518521515512514512509512508511511509510508510512512511515510509513512512511512512512512512513513515513510510513514512509509511515511512513512513509511513512511513511513512512511511517511511519513510510510512512514515511511513512512513513510513510508513512515520512507507507511512513510511511514513513512512513512512515515513512511511511510512513516514506511508508505515519515516515513509512515513512513512513514510506512510511512513512511513510512510511512509512512514513513514516515512512512511512521519513511511511508512506506507511512517510512510510509511511513510512517511512519508510516515515515511511508510509509509507511515518516513513513512509512514512512514513513513513512513510510509511511511508511510512512510512512513514513512514515514513512513514513511513514512510511512512510512509511511512512512516512509511511511510510511511509514515518515512509514514508510511511511510509513515513513515510510509509515511513513512511511512513509510509510511511513513513512513515511508514513512515513511510513507510512510509512510512512514513512513512515515512514513512513513512513514512512514513513511513512512513511511511512513512511511511508509511511512511514514513513513513512511510510510511513512511510511515513513511510506511515516515514510516515513512516516514512509506513513511512511511512510511508510511513515513512514512514512511511510508508515515511513513513512514515513512511510513509515511508510515515512513513510512509507511512511510511511509510514513512512511512513514510513512511511510512515512514512511510513513514513513512513513512509510512513514512511513512514513515513515510514513514511510509511512512513513512514511508511512513511507512510510512513514514512512514514512511511511511513512513515514512513512512512512510511513510508510512514511512511512510510511512515512511513513513514515514514514513511511512511512511513511510512511513511512513512512510510511510511512512512511511513513512513512513513513514512515511513512515513511512511512512513513513515512512515511511512514513511512511510508510511511513510508511510511514512514514512517512509511511512513511512511512513511512510509513511513510510510512515510511512515514511510511512512512512512513512510511513512513511511513514514513510511513513513511512513513510512511513514513513512513508512512511510510512509511512516515510512513511511514513513514512512509510513511515511508508508512513513517517518513513513512511508507512511512513512511514510510512513513511511510512512514513514512511513513512512513512515513515513508514510509509510510512511510510513512514513513515511512511513512512510511510509509509511511509509511512515515514513512515513512515513513510509510512515513512512514512511510512512514515513511509512512512515514512512511512511513515514513512512515510509509513511510511511511511510512512511511512511511512511513513512513513512515513512513511515516513512514518516512513511511511510509511510510510510510511511511511513514511511511512512512512512511512510511511512515511512512512511512512512511511513513511513512513512512513512512512513512512511511511513512512512513511513513514512513513514513514517513511510512511508507510511511512511512509509514511513513511512512512517513511511513512512511512512513511513513514516516512510508510508512510511516513511511511514512513508512512513514513512512515511511515515512513515511509510508509512511510514515513512512512510512511510510513511511508511512513510511511513512511512514510510510512512512514512511512512510510512512512512513512510508509505511518514511511512513515516511513514514513512512512510511511515513512513515510511511512511509510510513515514514514512512512514514512513509512512511511512512511513513513513511512512513512511511514511510510512513513514511510513513512512510512511510509510510511512511512513513514511512512513513511516517512510512511511512512512512512513512510513511512513510510511516512515514512511510511513511512511511513514512513511513512511511512511512513512510511511513511512511511510512510513513512513512511511511511515513514513515515513513511514512511512511512511510512511510510512510512511512510511511512512513511513512511513512513513514514510513512512512513513513512511511513510508509508510511512511513512512514512513513513513516512512513511513511510513512513511512513511510513511512511513513511510509511511510511513512512511511512511512512511510511513514513513512514513514512514513513511513513513512513511510509509512511512514512512513511512512514511511513512511511512511514514514514513513515514513513513512511512512510512513513512515513511512512511510511510510508512511511511511512511511512511511509512512511512511511511513512514514512514514513513512513511511511512511511509511509512511511512512511513511511511511511510512512513513513515512513513513512511512511513514513513512513512514513511509511511513511512511512510513511511510512511509512510507511509512511512511514513514514516516516512512514511513514513515515512511511512510512512511512511513511512513513512509510511510512511509513511512512512513512514513514514513512512511512511513514512512512512513512511512512512508510510511511511512513516514515513512513513512512512511511512512514512512512511512513512510511512510511511511511512510513514512515513511511512512511511510510510509510512511511514512515512515513511515513512511512513514513511512513514511511511511512513512513512513513513515513511511513512513511510509511510511511511509512510511510513512512512511512512513513512513511511511514513512511513510512513511512512513512511513511510511511512511513515512513512513510511511511511512511513513514513515511515511513510515514512510511512513512513510511511509511510510512511513512512513515514513512513514511513511511512511512510511511513512515513512512511512510509511510511512513512511512511512514514514513515512514511510512510509511511512513511513513511512511512511511512512512512511512510511511511512511511512510511513514512510513515513512513513511512511513512512510511511513511512512512511511511510512513511513512514513513513513513512513514511512513513512512510512513512511511511510513511514513512513512514515513511512511512508511509511510509508512511510511511512512514512511513514514514515514512514513512513512512511512511513512511510511511512511510508509511511511511511514512512511511511511513512513513513513512512513512511513513514512515512513512510511511512511510513507511511508511510510511511511512513514512514514512512512514512512512512512512511512510512512513514511510513511511511512510512512511512511511512511511511512513514515515513515514513515513515513512510510512510513511512513511511512511512513512510510508509512512511513513512510512510509512511512512510513512512512513514513514515512513513512511513513513513513511512511509511513512512510511512512514511510512514513511511514510512512512511512513512511513512511513512513512512511513513513510511513510511511511513512512513512512512511512512511511511512513514512511510511515513514513512511512511510513512509511510510511512511511512512511513511512513511512513515513514514511512512512511512512511513514514514513513513511511511510512511510512512513513512513512512512512511513512509511512512513513511511511511512511512511513511513511512510511510511510512511508512510511511514513512512513512512514511512513512512514513513513513513511511511511512512513513514515512515512511511512512512512513515511512510512510511510512511511511512510513510512511510508511511512508511512513513512512512512513513513512513514513512513512512513514512513512513515514512513512512512510510512510510512511510511511512512513512511512512511513511514513513511512515513514512513513510509511510512512512513512511511511511512513510512514513514512515513511512512510511511514512513513512512516513513511513512513511511512512511513512512512512512512513512511512512512512513510510509510509510512513512511512511512513514518516516513512512515512513512513512511512510512509510510510513512512513514512515511513510510511512511510513513512512514513508511511511512514513512508508511510513514515512511509509512510511513513516515513511513512510513515512511511508509510512513513512512512513512514512512513512511513513513511513513513513513512511513512511512511513508509513513514512513514510513514513512513512509509513511512512513512511511509510510510513511511511510511511511512512514512515513511513511514512514512511512512512512511511511512510510511511511513513512513514513511511513512512512512512512512511512510512511513513513513514513513513511509510511513509510512512513514511511512511511513513513513512512511512512513511512513513512512511514514512512512513512511514514512512512511512511512513512512512512512512511512511511511512512512510513511513511512512513513514512511512512512510512512512511509509511509512512509512512513513512512514512512512512513514513515512512513511513511514514508510508510511513512510511512509512511510512510514512510512511511512513513510511512512513512512512513512512510510513511511513512511513512510511511511514512513512513512515513512513512513512511513513512512512513510513511513511512512513512513515513512512511512511511510508509510510509509512511513513511512514512514515514516513512512513512512512511510512511513511510511511512512514515514511512512512511511512513512512512512512513513514512512511513511512510510510510510511513513512511512512513512512511512511512513513515512513513513511510510514511513513513512509511510510512511511512513514511510512512511511513514512512513512512512511512515509512513515513511511511513511512513512510512512513511510513514513515513512513513513512513513511511513512512510510509512513512511510511510510511512512511512512512512511513514511512512510513514513514511513513512512513512512511511512509510513511513514510511511513511512512510513511511512512512513511512510511512513513514512513512513514514513512511511512512510510510510508509509509509511511511512513513514515513514514514514513511513511511511512511511510512515513516512512513513513513512512511513512512510508510510512510512512514515511511510511512512512513513513511514512511512514514512513512511511512512509511510511511510513515515513513514511511512511511510511512510512512512511513514512512513513513515513512513512513512512513513510512511510512509512511511511512511509512512511511513510511513512511512512512512515512512513513512512511511512513512511514512511513512514513513512512512510512512510513510512510512512512512514513513511513510512512512510514512513511510512512512512511511511511511513511510512512514512512514511512512512513513511512511513511510513509511513513512511512512514512512513513513513510509510512512510512511512512511511510512512511514512512513513511512512514514512512512511513514513512512513512511512513513513514513513513513512511511511511511512511511511510511515512512512511511512511512513513511513511512509512512513511511511511511512511512512510511512510513513515514514512514511512511512510511510512512511513511513511511512512512512511512514513513512511513512512512511513511513512513515513513512512512512513510512512510511511510510511512512513511513512512513512510510511512512513514513512515514514512512512511512511512511510512515512511514510510512511511513512511511510511513515513512512511511511513510513512513513515512511510511513512512512512512515512511513511510511509512511511513510510511511512511514517513513513514515514514512511512513511511512511512512510511512512511510511509511511510511511511511512511513513513511511512512513515512513513513514512513511512511512513514511510512513512513510511513513510511511510511510512511510511510511510513513511511511511510511510510512513512513512515514512512513516515513515515511509511511511511511513512514514513514514513512512516509512512510512511510510511512511512512513512512512515513513512511512512510511511512511511513513513512514513511512511512511513510510511511512513511513512511512512513513513513511512511512512512510511508512511510510510510509508512514515513513511514514513512513512511512511511511512511512511510511511512511512512512513513512511515513511511513514512512512512513512512512512512510513512511511512511514517516517515512513511511512514511511512511511510511509507508508511511512515515516510509508513515514513512512511511511512515511510511510512511514513510510512512511512511511514514515515513512509511512510510512513512510512515513511512511510511513512514514513513514513511511511510510511511511511511514513513510511512511511510512511511514516514515513512510510515512510511511516512511512512509510511513513513512512512512512512513512511510514513512512513511509510513513513512509512510511512512511512513512513512510512511513513510510511509511512513512510509513514517517515513514515511511512511512512512512511511511511513511512513511510511512512510511512512512514514514515514513513513512513513510512510509511512507512512512513514511512511514510510510513517512512510510511514514511511511511512512513512511512510514512515514513511512513513512510509511509508514516511512511510512511513513513514511514510513511512513512513515513510514512512513513513512511512511512511508508509511509511511511512512512511512515511512511508513511510513512510510513514511510512515515513513513511511511513515513514516512514512512513513512514512512514511507509512508505510515511511511514511511510513512511511512515518512515515511511510514514515513512514511510510512510511510513513511511512511511514512512510512512511512509510513513513511510512510512514512512513512513514512511512512512510511513515512511509512514514510511513510511512509511513512512510512510511509512514514515512515513512512514515513514511510509511512516521512507507511508509512515512512509511511511514514513514513515512515511511511512512512512513512513510511512512512513513513512513513510511513511512510510511512511513514511509511512513511510513516514511513510511513511510510513513513508511515514514510512512510511512511512512511512512512510510510512516515512514514513510507512515515517513513510509511512510511515512511512512511512512511512510510507512509514513511512513512514511510512515511508512515509514516511512513511511512518512510507510511512514512511510510510513515515512515512517513510510507510508510511511510512511513513513510510510510510511515515516514505509515513513514510508512513514513513513512515513515515516513511509507507508512515513513511513513509511511510508509512511510511511512515516515515516514512512511511511510507509508508511515515510509510513513510508517522518510510510512513509515516510513515515513511512513509509509513515510509509511517511515514512514514514511510510510507510513511509512518517513511508509510513512512510511512512510514513514513513512512509508506504510514521516515513514511512513512510515510510508512512507511515512512514510508520518514513512513511512512509511511510510511515513513512514516512510508511511510511512510512509509512515512512513512512512511511511512512513511511512515510512515515517514509515511511510511507512511513511511511514511512512509511511514516513516514512511512510508510511511510512512508512512515519515513514512512513512510511511509508509511515513511513511511511510512511510515516513513509513509514519515513516513511511511508509513511512512513516510511510514513513509511515517513509510513509510512514513512511511511511512510512515513512511508506511512516515515508510516519515514511508508508512511507512515517513510511512513513515514511508509519514515515515513512512515512510509505508513511508512510510512513516517513511509505503507518519515512510511511514509510514512515514513514511513512509514513510508509506512512513511512514513514514515514512508507509510511510510511512512514515511511514508512512516517515512514514514512513507510508510508513513510511513510510516519518516511508511511515514511512511511512512511512511511511511510507509510511512510512513508508515516512513514513513510511512514514514512513513512513513507508514513512514512512514512516517509511510510515514513512511509507508509509509509509513521513513514511509510512511510507510512511512510510511509513512514513512513512513514511515517513512511513512514514512513514509510511512515517515509513511507509511511512510513511518512511510511512509510514515514513511511512513511515512509510514514511516512506511511511509512511512513512512509512510510510515515511513513508512511516512515517511506512515512512511512519511510519515511513515515509508513511508510512511510510513513513512511512514512509511509512512511513514515512511512513511513513511507506511517514512510508508508515513515513515516511510512511508514512509511513517510509512513513513517511510509510514513511511512510512508509514513518515512513512514508509510512513514512513511510508513515512511515512512512517514509510511514511506503514515515511511511512516517516509510511511511516514512512511511515515515509509507508507511511514513516509508511512514511508508511512509515517517514518516515512519514511509509507508509512513517516507506512516509511512507511513511512511511513513511511510510510510512514519508512516509512513517509510510508509512512512511513518511511515518510507509509508510512519516512509511515512512514512511508509512515514516512510510507512510515517512510511506503522522515513513503511518517512517514512508511512512515512506508507511515512511511511511511513514513513513511512511510512513513512511513515515507506507510509515517511512513516517518520513507497505510503509511511518511512514520523513511507511512515516512513513512510512510512512512511512511511513513512510510509507515512511512508509512513513515511511518516512508515519510505512517515512514509509511514511513511513511504513515520519514513514512518511509509509514508511515512512511511512512511513518514512510514516513508508506510512507507501502513519527516517521516513511504502508522514509514510516512510511513512513510512515511509508514515514513511512512513513512514512510508514513512513510510506508515512514517513512510509508511513513516518516512507509508512513514512511514514515509509509514514511513512512511508509511510509515509506512518516519517511512512516512515509512515512510509504507514516512508511516511510510513513512513512514512509513514509511513509510510508512512514520515511515511511513512508514515516512510510510512513511510510508511509513512509514514512518515518511513512511511508508512513505515522516509512513509509509512509512512509510512519513512510509511511517516514512512510512513508510512512508511515513512510504510516517517516505512511509515521520515508512507509515509510511513511509504511514513515515508514512512514512513512515518518516501505511511511511511511514511511511512514509515514511511513512516514516509508505510511507507512504515519520510511513520512515519515509505511511508505511512512513514513512505511513511504513514512514517515507507510519515510515522513508509509513516518509510510514513519518515513506508517509514508508504504512519514510511503521519516513515515511507508504510507503515516512513512512514511512512510511511512513513512507508508517521517513515512512506513510519520517510503512512507508509511511515514515508511508505504508509511524522529512507516513512509508516517511512509509510514515512508511512508510512510514514513512509512511514518514511506509508507512513521513505511495522531518511506503512507505513514513507512519511510507515514510510510511514519515514515515510513513514510511514513512514514512512514511511511513509510515516512512510515506511513508512499512522518519516509504511518519509508507510509512517515510512508512512511509511508510514517508507517518516511505508511512514513517518516516510511515507512522511510513512503507510509511510513511512512511514511510516509504510520512516514512517521510509512510511509507515517511512510517513508518515509501510512510506517516510505510510512517515509505515526509505508511516512507513511514512510511512513511509512512513511510518514511505515510508523517515520510512507516516517508508509508511515509503514521526518509511509512512510508506506512512514512511512510507512514507512511507507517516516511519516511508505510513508511511512510507506506511513513520516515513505510520512519519515513514511509515510505506506512516522514503505507518515510512507517516510511516505513516519514517513510515508509515512508506511512508506517521507506519519518509499503515515520515509510515515512519510498500501520523508505511513512509511510512512515519515514513513516514514512508511509504501518524525519505516518515511504505508512514518510508503507509520511503513513508518505505507511515510511513513512519516510505511515518516515514512511509511511507510516514509515515513511513515514508518514503511514513516511512508508514512504500519520518514511515509509518515514516515512504508512509502505512508517516517511510513510507512515517515513511510518515508512511512512509512508511526515511505512511513514515511508508507509513514514508507515510509511515511512509511505507514512509508511511510506512516523520517504508519522512507511508520508505517518517513514518511512514510511519518504509519516507504506503513512511514507509514512515512509511516513517510509510511515516510516513511513512508508508510502509514520516508507519514511506507512515511519518511513516513510515507505513504511510517522512516509509511517513511515508513513508510511507508510509512516515518514506511515512510516514514510508514519517514518510507506516513513515507508509509512514511508505513513509508511513509510515513513522516510513520514508510515513509516520511516516511507510510507507502503510519514508519524518511510514513513512508508508508508513515519518514512509509510512512515515507513507506509514515511514512511511512512517515518521504511513518508495510520508514510511508509515510504513512511510515519516513511519513508504501506503513527519515515514511516519513508508511508510510509516521516512519518506510509508513520514513514509508510507510515512511508511511511511509508514513512518513516519512511510511504505510511517513510512511507508520516510508505501511510516520523518515510508510510512509511507512519522511509509510513514514505503514507508514515514514513511513512513513511512513519518511507506510512508511513516514511502508520508518511508511509510516519514510510515519516511505512516511515508516513513514514510512510515515512512516511509508510513511504514512506510512513508509510511512512514513511516516511511511510508509511516516511525518518521512513511513515513505506509512512508511512511509511505504509503508519527520514509512507508505515517511505516512512513513511515511507509513515517510507507507518513520527518506507507514512512514512511508507514515508513510504505516510510527528510512506515510508516514512511511515511512509513511512516515515513510510506503508519513510505506507508514519514509511516515512514514512513514512510507507505513512523525517512509512514509505506512512511510514511508517515511508510508509508514514509509513515518513516514511510508511508516512516516511513508511504510516516511506514520517511510505511516514511512513516518511508512507503506509518514512516517519510507514511512510514509509518515509510513514510509510513514510511514512511511513511513512512510508512511514511512510507514515513517515511511513513506514527514507510504510513502508520520513513511512511513511505512514512511510512516513517512507508508508511507515514512515518514508513519508509508510504518512509507524511511510510512512512516511511512512508509512509510515514513511512508515507514518516511512505507515518511515523509512506515499496504515519518513511515514518510507515514517512512508510512507513512511515517512515510512515518516513507507512511510519512507510517506506504515512511510512515509510503505520512519518510505509517521509508513514519526511508514511509511510509513515519512510510507515518514511513503508516518513511509513511509511511513513509507512509509512510510518521513509508515510513514516513510509513510511506514513514517508512514510515516512523517507513508512504508511511512516510507512507509511512513518513512512512512510506515515514515515515513512513505508511520518508504504519515515518512511508503511521514512515510515512513513511512513513511507498502521512525504506512518513511502508513523514507512515511508506508510509510510508513511518516514518518507513513513513510512513512509512520513515512505509515510518519513510513504510513507515508511511508519512506509510507504505507528530510507512510508515523521514506513522515508505513511508509511511510510512513516512509507510512510514517513514508507509512524526507510515509509511514510508515512510512513515517510512511508508507503512507519525516508504506518514512506512516513512512512513511517512513511513516517508510510514512513503512528517511512507508507511508508511514512515518514513517516513505511517510510515516511506506505507516521515507513515512510507521510509502508513506516520510510515509512511513511513514512513512513513510510516515508515511508508511511512508511527510508519513510509511512509515515509511514510505512517517507516512506504510512510512515517518517505511511514512513512511513517512509513509507516512516514508510515510513514512513515511512513515511510510506511519516511515512509507508506508508505520516512513508512518520519510505507519512517517509515514507511511513516509510515508507508511509506515511509517511512510514512512508509513515518512509516513506508515510508510515518511510515513514512511512515515511513521513515510507515511508508508509510515512509513517512507507505514519514511517513513513507507519516512510511513508510516515512511507521523514509514512511505503504515516520507507505512515517513512502504509511519514511510510512514512512514511513513511513514513512512511512523519514507504511509508514510510516515512512509513511512516524512511506507508512516512518516513511511511513513509506504507512515516513512515514513516516508511511507507522521510512513511508512515507513515512514517512516504505505509510513514518507510513509509515511508507520510510514515514509511513513513512511513511509509509510515518519513507509509516518515509500504516513520523517511511510510515512512513519513507511504508512509511511507504513515510513510510523521510515514514513512511513512515514513512515505509515504508515517519512508508510511514514511510506510515512509511514510511515510509508511513519518513517509505510515513511512514511509513513511512514512511515514514511511506516515519513510513512506505508511510516514513513510515509511513513508506507508515513515511509510512516514512512513513512514513513512511510512512509505510511512517523517510505508513515516515512513513514514515511511511514511512512512513515513512513512510506507510512514513509511514513515515514510512513512511510513512510510510509514510512511515511514515510511510512512511506511511512516515507507512514515515510513512510511513513509509511511511511510508511518515514514515517508513512512514511509508508509512516512511512513513512512513511512511510512510510513512513511512511514513513514514511513512513513513514514515510509512512512509511513517514512512515514513512513512512512512509512511512510511514512509510513508513515507509515515515509510511511509510511512512510513510512513512511511512514515512512512512513513515514514513513513513511512510512511512509509510510511509511514513513514512513512513512510510510512511512512513512513513511511511511511511511512513511512512513512511512511511512511511512512511511512513511512513512513513511511510511512512512513511513510512512511511513512513510512510510513511511510512512512513511511512513514513513513513512513513509513513513512515512512513513511514512513511508511511510506511510509512511512513513511511509509510511512510508510510512514511514512511512513515511511514514512514516517514515514514512512511510513515513505509515515512511516511511512511511511512510510513512511510511509512511511512512508513512512512510511512513513515513513513511515512514513512511513512513512510511512508512510512513514509511514512515515513514513511512512511511511511511512511511515513511511511513514513515515511511512514511513510511511510509508511510509512511510513517511512513516513511511511513511515518512509511510513508508511512512516513513513513515512511513511509510511511511511511510513512512512509510508508512511508513512513511511512513510510512511514513516515511511512512514513512515514515514514516511510511513513512513514512512510511511510511511511512514513511510511511513511510513511513512509513512513512512513511511510512515513512510512515514513513513511509511512511511511513513514512512512514513511510510511511512513513512513512515511511513514510515513511508509511509509511511509511513513512516515515512511511512511510510512512511513514514514512511513511511510511512510508509511512509508511511511512514512512515513514511511514514511513509514513514511511510510511512512516514511514512512511510511511512514513513510512511512512512512512512511512513511513515512513513514511513511512512513509510509508509510510510510511510511513511513513512512512514514515513514512512512512512513512511512513511511511515513513511510511511513511510510511509511513513512512515515515514515514514513514513511510510511509510513514512510511511512513514510510515512512510511512512512513511511512511509512511513514511512511512514518512514508512514511512511512512512512514514511513511508510512511510508508508510512517513511513512512513513515512514512513513513511511509511512512512511511513510512511511510512512513513511512513512512512511513513513513514515511511512515515511514511512512511512512512513510513512510513511511511512511512512512510514512514513515514513513513513514512511509512511511508509515511510514516510510508505510511512511512510511513514515512512514514512513513512511509512511511510512513513514513512512511510511511513513512512513510510514512514513511513512511513512512512513509511509510512512513511510512511512513512512512512511512511511511512512512512510515514513515514515515514513512513513512512512511512513511511511511511509511509512512511511512511509510510512512513513512515513513512514513513511515514512512511512511511511510511511511511512509512513514513515511513511513512512511511511509509512511512512511512513511513513512513515512514513513513512512511510511511511512513510512511513512514513513511511513512511513510512512512512514512515512511511510512511513512511512512512512510514513512511513513511511511512512513513512513513512512511513511513513511511513510510510510511514513513512512512513510511511511510510511512512513509513512511511512513515515514512515514513512512512512512513510510512512511512511510511512511512512513513510512513512511510511513512511512512513513510512511511512515514511512512512511512512514512512512512511512510512511514511512512511510513512514510511511510512512511510510511512511512511509510513512512515511511513513512512513514512514514513513512513512510511510510510511511511513512513511512515513510511510511512509514511513513525541543542537533527524519516511510509504505503502502504504503502504503505507505503506505508507508508509508510508509512510513512515512512513510513513513511511513513512512513511512511510509510510512511512512512512511512514513512513514512510511512511510513513512512513513513512512511511510510510512512512513512511511513513511510512511511511510511512512511512510512514513513513513513511512510513511513512513514513510512510511511511514514513515512515511512510511510513511512511513510514513510511513513513512514512513513512509511511512512511512511512512511510510510510512510513512512511515513511513515511514512515512511511512512513512512513513511512512511512513514513511511510512511512510512511512511512508513512511510511511512513511510509512514514512513513512512510511514511511511512512510510511511512514512512513513513512512513512512512513512513512512511512513513511511512512511512512511511512511513511510511515512513513512513512513512512512512513511512509511512512513513512513513513512513512513513511511510511513511510507511511511511512514513514512511513512511511512514512513508510510509510509510511512512511512513513512512512512511513513512513512512515515514514512512513510511512512513512510510511509509510511511512512511513512513512511512513514511514512516512512512511511512512513512514511512512512512508511513511511513512510510511510512510511512511514512512512514512512513511510511510511512511512512512510510513512514511512511512514513512512512515514512512513512512513512510511511512512512514513512514514513510512512512511511512511510508509511511511513509511512512513511511512514514513512515514513513514511511511512512510512511512512512512512515513511509512509511512511511513512514514512514512512514514515512511512511512512512512511511512512512512513512511512512512511508511511510511508509509511511512510512512511510512513512513515512514514513512514511514514511513513512511511512511511511511511511511513511511513511512512512515512512511512512513514513512511513511512511511511513511510511510512510514513512513512511511510511513513512510512512511513511513510511513512513512512513513512512511511511512512511512512511512511511510510513512511514514514513515513512513514515514513512515513512509513510511511511510514512511511512512511511513512512511512512512512510510512512511512512511512511511513512512513511512513514512512514513512510510510511512511512514513513513514513513510509511511511511509510511511511511513510514512512513512512512513514512511512513513513512514513513515514514514512511512509512512513513512512512511507510511511514511513510514512513513512512510511509509509511511513512511513514512515514512512513515512512513512512512514512512511512513512511512509510511512512510511512512514513514515514514513515511512515511511511512511510508511512509509512512511513512513512512513512511511511510511511510511510511512511512512513513512511512510512512510511510511511513514514514513513513512512512512514512512512512512511512513511513512512512512511509511510513513511512512512512514512512515512511512513514512512513514513512512512510511511512510509512513510512512513513511511509511511507512514511513514514512513513511512512512510514512512512512511511513512513511511511512512511510510512511510514511512512513513512515513512513511512511511512510511514513513514514513512513513512511512511512512512514511511510511510511512513513512511513514513512511511511512512511512514511512512513511510512512513512511512513513512511512513513513512512514512515514512512511510513512510511512510510511512514512513513513515514511510511512511509512513510510509511511510512514512513515515512513514512515512513513512511510510511513512511511514513514512513511513512512514512510511511509510512510510509513512512513511511512511511513513514512511511512511512511510511511512509512511512513510513513513512511512511511511510512514514515515514516513512511511512512513512512513510508510516515511511512514512514513512512514513513513511509509510509511513518518513513512512511510507510511511510512512513509511511513515512511510510513511512513512512512513512512510511511511513515513511514515515515514511512512513511511510512511512512513513512511515516511511510513512511510510513511511509512513511512513510511512513511511512513512514514512512511512513510512512511511511511512511513511512513512510512512516513513512512512511511511513513511510511512509512511511508509511512512512511511511512510512512511514513513512513514512513514513513513513512513513513511512512512510512513510512513513512512512511513512510512513513512511510512510512511512513514512513512513512513514513510514510512513512511508508511509509509509510512512513515514513513511512514513514512510513511512511513512510512513513513514513512512512512511512511510509511511514515512513512512513516515511513512510512511510512512510513511514510511508508511511512512511513514515514513515514515512515511512512513512515512511511511513512512511509509509512511512511511513512511514516512512515512510509511513512510512512512514513511511510510513514513514512512512511511512510512511512510512512508512515511511509511515513514515513515511513513514512511513510512510510510512508511512510514512518510511512512512511512513514515513515512510512513512513513512511511512512511511511514512512512512510515513514513514513512510512511512514510512513511512513510510511508510510509511511511511510512511514513514514514512514513515513515514513512516515515516514511512512512510513511511508507510510512512511509510509510512511510511514514516516515511513515511511514512513512513508508513514514513511512509509508509509513511515512513515516515514512513512514512511511509508510509511513512513513510510510513512510511514512511511514511513512512513512513511511512512509511513513514515514513513512509513512513515515512512515509507508510509513514510507509513515511513512512509511511513516517512512510512512512512512512512514512512510512511510512510511512512512516516513511508511512514513512516512512511513512511512509512512510515512512512511509508508512509514515515514512509510515513512512513513515518513513511510506514512513511514509510512512512512511512514512512513513513515515511511512509511511511512512515513514510512510511510512510510511511512513513513510511510511508514515511511512514517515513508512511514512514515519515512511513509508510509509517514513513511511509508510512511510511510513514513511512515512511513512512510513515510512512509512514514512510512512509512510510510510509513515513515511513512511512508510513512511511508511509510508510510511511514516516511511515513515513513514512511511512513511516519508505510516512513511507505513515511510512510511511514519511514515513509508512512512516513514515512510509508510512512512512514515515513513512512512512509511512512511514511513510514511512511512512511511513512513511512512512514513512513509512509510508508511511511514513512514512509510509515513513511512512511513514513512512512512512511510512512517518516513511512510510510511512512511510511509508510511513512512515515512513513512512512511513515513512514510508509511513515516514509508513514513512511515511510512512512512511508510510511511511509511511508510508510511511511512511514515515515515513513512513514511509512513515513517518513511512512516513514514511507506513513510509510511511512511513513508509511509512510510511511514514514515514515514513513512513516511512510513510511513511509511513515511515511511511510511512511513519513511512509512513515514510509510510512512513515512515515513509512510509510511512512514514512512513512511512512510513510511510512513512515512513513509511515512509511516512511512510514513511511508510510510513508513515514512513513512510510510513513511515514513513513515514513508502509519516510510512509512509509510511512512513513516515511513513515516513511512512514513514513513513513512511512511511511510510508510509512510514514513514512512513512513511511512513514512509510508511512514515512510510512512513516512510512510510512517511507511509512510519513510510514515519515513511511507509509507510511509511512515512513513512513511508513513516515510513511513513512509511516515511513513512509509511512514515509511507506510511512511514512516519521515511511513515508509511509509508508511517515509511512513513513514514516516511511510507510511512513513510512512511512510508511515518515516518511509509510511516516514511512511511514512511512507508511511509515519513510511513511511515511509511510512515516512511510508507513513515515513511514513512514511509514512510511514511511513513510513512511510507511510512512512513511513511511511511513511509515515514510508513511511509507514516517515512508512512513511513513514513514512516514512514512509509511510509515517514511511510511512511510511513513511512511511514513511513512511511513510513512512511508512512511510514515515518514511512510508506511510511512511511512513512511512515512510512514513513511513515513510509513515515512514512515512511511514515509505505513515515512510511509510511513510513513511512511512510511509509511512512510510512512514511515513514512511514513510512513513513512511512513514514515511513511512512515517515516512509508509515510512517512508506512515512506513511510513515514513513515517511512513511511506506509512516515512512515515513509511509507511516516510508515514512509511512512512513514513511512512515513511511517511511512513514515509504506513512510510510510513513512515513512510511516513514510511517511511511511511510511511511509512515515514512513513512510512512513512511515511513514512512512512513510511513512512510510509511510515517511508507511512514510509511514512513512510510515512510510514517512513514512511512514512512511512512513512511510511511511510515516515513513514512512511511514511511511512512515512511512511511514510506511508513516512513514513514510513512510511509512512513512512513513511512511511510514511511512513515513513516512513511512512511511511512513512510509508507510511511511513513512511513510509510514515513511513512514515513513513510508511511511513511512515515515511511513511514514512514513512513511512512511511511510509511509510511511511512511511512511513513514512510515516513513508511513512512515511510509512512515508505510512512519515513516515508512513514515512508510512512510508510509510516513512514515513515514514511512512513512513512510513512511513510510510511511511512513511511511512511511512513513511512511510513511514513514512513511510510507508512514513513512509512511512514511513513515512510513513513512512509512510509511513512515514513514513512512513511511512511510509509513512510513515516516512510514513512511512511514513514514514512512512512509512508510508513516517511511511511508509511510511513512513511511513516514512514512514512511512511514513512513512512512512512512514512513514514515511512511510511513512512512512513513511509511511512513516512511510510513514513513512513509511508510512513514514512512515512512511509511511511511510511512514512511515514511512511511513511508508512511513512514512510510513512511514512514511512511511511510510511510511512511511512511511512508512513513512511513515515516515512512509510509511515513512513513514513513513510512514512514516513513512511513512513514513510509508509509511514508508511512510511511512510511512512512514513513512515514515512515508508514512511513514513510512511512512515513511509512513513512508510507511513509508508512513515512514512513512513513513510510512512512514512514513515514514513511508510511510512510511513511512511511513512512512511511513512512512511513511515512511512511511513511512511512512512513513512512513513511511511512513512512512512513512514510514513511513513510511513514514512511512511509513514509508508512517518516514514513510511510511511508511513513512512511510510511512512512515511511511511512512513510513510512511515512511511511512512512511510512513513512514511511508513513512511512512513515512511513512512516513514511512512514512510510509510510511512513513513511513513512511510511513511510513512511511510510509511512515515514514514513514514512508510513513512514513512507510514511512515512511511512509509508510510511508509513514512510512511512512513515515517516513513512511511511510512512513512513514513513512510511511510512511510512512512514511512515513512510510512511512512512513512511513515514511509511510510515512515514513513511511512515510511512511513510512511510511512512513512511510510511510509511518518513515516513514514512512510509511509513516515515514511511510509513512509510510513511512512513509512516514512512510512512511511512512511511511511513515512513512513513508511512511512512515513512509508509508508511509512514514509510513515512512512511507512513517514510515516515508507514517511513510510514511510511512508512518512508512512509511517514513513513514514511508513511513512512511511511511511511514513514513512512513509512510508508511513513513518510512515513512513514512512511507510513511514512514510511512514515516519512511511511513512508510511512509508514513508509511515514512512510507507508514515516520519511510511513512508507510507512514511514512512512513512510508508508510515515511512513514513511512512513512513510513512515512513511510511511509515517511514512510508509511511518512514515513512511512515511512510509512514512510508511510514513512512509511512511513512512511512513513512513512511511511515516516510510512510513512515511513515512509509504513515514513511510512508511515516514511511512511511512512513512510509511515511512512515508507509513510511514513515512509512512511509512513512515515518516512512511512512510511511512511511513510510510510511509510509512515513515513513513512512514512515512510510507507513513507507516512511512512515513513519515513513513509512516511511511512513513510511511514515513516513511508508510511510508509510510512508509511513514516516514513514512512511509511512508508511512512511513513514513512511513513515515515512511511508509511516514511511511513511512511509512513514511511510508511510513513514513511512511511513518516514512513513514512512513516509513512511511512510511511511509512510508510512511514511512511512510512513516514512512514513510514515514514512507511511509512512513511510511513512511507512514512510515513512510512512517513515518518516516514515516515516512513512513514512511512513509505511509511512510511510509508512511512511511510508509515514512509510511512512513512510509508507514517516519515511510508511511511513512511514513516511513513510511513511510511511511509511511510510511513515514511515513515515514512511510510514513509516514512511514514510511513511509508510510511514508507512514515508507511515511512519515511512513512513516512514512512512510509511512509511512511511515515511515515515508513515512515513510508511511505513511510511509513516513511510512513515513511512508510513511508512513517510515513511513512511508511511512513513513512515512511513511513513507511515512512512517509508509507511511510512509513513512514517515514511512512512512509514516513511515512513512513514511512511515512509508510513511515517511512514513510510511512513515513510512517515508509505511516508513512513510512516514514512508509514513511511513512513509511511510513514512511509510510511512509511512518515515513511513513513513512512511511509509515515513511509509511515516511513515518514508513510507510511515515512511512513512510509510511513514512510507507512514516510513510509511515513509518516516515510513512510510511513513510513513511511513511515514511510512508513512511512514513511508508509513514512515517510513510512514515510513510509510511510511513513513513513513515514512513511510511510512515515511509509512514515514512510510513517513511512508509509510514511510513515510512512510511511512510507510512510512514511511511510509511513515516514515516515513511509511511509510511512511513515515514513510515513512511510513515514516514512514513512510513513511508513508506511513508509511512511513513512514513513512511512511511511510516515512512509511511511511509511512512512510511511513514511512513513511512515512510512512514515513513512508507511513512511513516517511511512511511511514516512512511512511510511511513511511513511513513512512511511512512512513510511510512513513512511513510511513515513512515513510512514512513513511510509506506516517510508513513513512511511513511513513512511512512511511512511510511510510518514514511513511512511510511509511515512513515513515512511509510504509512516515512512512514512513514516512510512511510511516515510511511511510515514511510508508511516518512512510509508509512512511512510514513511512514511512512513510515513515518515511512512512511512510508510510511509508509510511513515516514513513511512512510513511512511515514510516516514511515513509511513513513512511510511511510509510509513517511513515510511509511518515511513513512511513513513511512511512511511515514511512509511508511513513514513512511512511510509512514512514514513513511511511512510510512512512510513515512512515514513513512511513512513513512510510512511507515513514511510509512511510509509511515513518514511513515509513512512514511509507505512513514514511511510511512512513513515512513513515512509507511513514517513508511511512511521518511513510513511510510510513516510509509512513512511511513513515511512512512512511511513506508509510512512514512512516516515513512511508514514512512508511515522517515512509511512514510508513510515515512511509507505506515513514516515513510510510508511511512513512514515513511509512512511512511515512509512512515514514514511513511506513511511508508509516517519515512513512514516513513514513514513512510509505505511511511512516513510507508508513514512518516511511514514513510508511511515517513512511511510510509512514510510513513512513512512513513513512514509510509510513509509509512515514511512510508511514515512511511512514509508511513512514520516511515517515513512510510506509512507512513510509511509510513513513521523513513512510511509512513515513509511513514511511510507505513516514511515515512511511511512511513515514515514511511511515512514514513511509515513510511512508509512512510509511512511511513507515516515508511509511513512511514509511512515512511513514512513514513511509512512512510509512512515512513511514514515513513512508511511512515512515510511512510511513511515516514513512514512513512512510510509507512509507505511519518515513510511512511511511513516512512509510512514511514514513511511511516514514512511513514514511512512514513512513512511510507508510510509510510511512514514512513514512514514512514511510512512514515512511512514511511511511510507508510512513512516513512510511512514511512510510507511513517515515515515514514511511511510512517511511512513513513511508508510511513508512509511510511510510509512512512512512515514513514513515514513513514516513515511508506511511512513512510512510514513512512511512512511512511511511509508517517514507508511514512511517513512510511511513512514513515516515513515515516514513511510511513512513509511511510508508509510515511511512512513512512512512512509511509508515516518514512511511512513512515511514512511511513512512511509513516514511512511511510509512512510510511511514515511509511510515513512512511514512511511513513512511509511514512511512512510511512513513513512514514511511511513512512508509510511513519519513514511512514513511512514511510510510512512510508512511512511510511511511512511513512512512511512513512512513511510510512512513515515512514515513515512512511511511513513511512512512511512508503507508513515512517512512515514512512510513511512515513514511515515511514512514513512513511508512511514512512509510510512511512510511512512512512511509512514513513512513513513513514511512513512511512512512514512511511508511510512512512512513514515511515512514513514512513510512509504505508508512512514511515516515516511511510512512512513515515513512511510512512510509508512511512515513511515513515510511511514511510512512513512510511511512510513512513513512510511511513511511511511511511511512512512515512513511512512509512510514509514512514514512511513514513513515515511512514512