511511514513511512513514512515515514514511512511510511511510511512512512511512513513512511515512512514513510510512513513512511512511512513512512511511510510512512512510509511513512511512514515518513512511511513515515514511513511512512511511513511514513513510509512510508511512514511508509510510512511510512510510512511513512515515516514512510512513513512509511510512510506511512511514514515514514512509512512511513509507509512512511512512513510513516515511510509510512515515512512511512513512507510517520516512510510511511513513515512511510512509511509512515512507508508511509511513513514513510509510508511513518516514512514512511510509511508509511509512511514513513515512513516515513512511508509510510511512511512512515515514512512508508512512511511512512513512514515511514513513511509514511513510511511511510510512513513513514511510509511514512512512513514510511508508508509512513513512513513513513513512512510513513513512514514511509514513513512512514512510506507508512511514512511512512513514514515515515512513510514515510506510511512511510512512516514511509511511512512510511513514513511511510511511510513512514514512513510511512511512512513515512515513513515512511513512509511514513512513513510511511510508512514515519519514511511511514518510508510510510509514514513512511512512513511511509508509513512511513511509512510511512512511513513512512513512511511511511515512511512511512513512511515510510511514513509511511510512515516516513513511512512511512512513511512512509509511511508509511511512513515512511511509514511511511513518519516514512511511511513514512514513511506510510510512513512514512511506509508513512513512511510508511511512513507503503504504507508511513514513512514515515514514515512512513513514515516515516518516516515512512514513514512514515512507510511513514514514512511513515512509512508508510510511511511514511513511511511510510512513514515514513514510511513514516511510509511512511510508510513512511512515515515513515514513514514514509510511513511511510511511511509510511511511510512512511513511512515515514513511511511512511512513512513513511512512514511511515513515511511512512512510509510511513515519514511511511513511508511512510509513514515514510512510509511512512514511514516516513512508510510513511512515516513513512513512513513513512513512512512510511512508507508510509512511515514515514517516512511513511508512512512512513514510511511512513511512509506512511514513512514515511511512512511510511512513509508510513513512512513511513515513514514517514511513511511514511511510510511511513509510511508512514513512511512514514513511509510510511510513514513516513514513512511509509511515514512511510512512510509512513512511511514514513511512511510510510513513514516514512513512512510512513508511510513510510511513512510512512512512511514514512514513514512512511511511514511505509513514513512511509511512515515519518515512512512511512510508511511509511512512513511514514515513513513512512511511513511510511511511510511514513514511512511510511511510511511512512512512513512511512513513515515514511511511510513513512512510513512510513513510509510511511513511510511512504491489495502508512514514512515516515516517519519514513514517516516519516514512515513512510512512515513513513513514515515513511512511512510510512511513513513514514511509512512511508511511511510510512512514513518516511516514515515514515509510513513512509510507506513514511511509512513514513510511512516513510511511512511511512511510511512513513515513511513512510512509511512513512510513512511513511512510511512513511511516515511514514518514511511509511512514513514513511510512514514512511512513510508510510510508510513515513512515513512515513511510511512516516513514511510512514512509512512511511513512513511509507507508511510512512514516512511513510509511511513512508512514512512515516514513511510511512512514514517516512513512515513510508513513512513515515514507503504508511514512513512509509510515513511511515513512513516516516513513515511512509509511511508511514515514511512511510512513514513515517513508509510508509511512509508512514513514513512510512514515516513510510512513511511513513512510511510511510511511508508509508511512510511515515517511515515515515515515515511511513512508507509512515513512514515517512513511511509510510508510511514513511511514515515515513515512512508510512514514512514512512515512508511511512511512512512512512512511513513511512511511511511513512513511511511513511516513514512514513515514512509511509511509508509507510511508511511515516513512511512514510512512514512513513510511513514515512512516513509510515513512512510510509510513512509509510511511512514513512510511513512511513512515516516511511510510512510512513513512512509512511512511513512513513516515514512509511510509510511512512508508506510512514516515513512512512512512514511510511510512513509513511511511509511511512513510512512514514515513511509510512512511514514512513512513513508513511511512508512515515514512509511508506509512513513512515518511511511513513511509513516514517513513514513511511511510506509512512511510511511515508508509518519513511511515516516508506517516514514512511511508510510512513511511514512510511510513511510511512511510512512511509513511511511512512514512513514513511511514514516515511515511508513514513512512512513512511512512511509508509511513512513513513512513510514514515516512512511508510511511513510510512512512512511511513513511512512514513512511511511513508508509516510507511512515517520518509511512512512510511512516513512513513511510505510510513514515515511510513512515513512513512511510508514515515513507507509514512510512510512513513515512516515513511512511511509508513513511509512519515514511509508513512508512510509513512513512509510511513512512513510512515515515513514515512511508507510512513512513510516517515514514513507508511509510516512511511517515511512512513510511512512513512512513514515515508511511512508508511510510511510510510512511511514512511512511512513513512511513508507510512516515514515518515513510508511514510509511513513513511512510514511513511513513512511509509509510513511512512508512511509515511513512512514512515515511513515511510508510508508513510512513514514511515512511513512518518515513512513509510511513517513511512515513512512512508507507511510511512513512512512512513513514512504503505518518516517516515512510511514513511511511513513513511512513512512513512511511511509511511512512509509508509510513514515514511511511511511510508508510511511516518517513509511513511510513515512517513511511511511512510512513511511512513512512513511512511510510513512512512510510511510513511512512512513512515516516518509510513513510515514512512510509513514511511513511511510510511511509509511512512512513513511513514511510508508511514515515513514513512512514515512512509508509512513514513513516515517512511511512512509512512513510510511512513514511512511511510510512511510510510511512514513513513517516510508511512514512512512509510510510511513512513512516512511513514516515514511510511512513508509513512517513512513513508507505509511511512510513511511513514514513514510511512512513512512511514516515511509510513511509510511511513513511513513513518515512513512514510512511506508510511509509511512512510510510512512513512512516513511512510512512516513513511513513514510511512510510511511510512513510510511515514515515515515512509513512510510510510510513511511512513512512512513511513512508510515513513512512511515517516516515513513507507509513515514514512512509510510512516513510513513511507509511511514518515512511513511512508509512510508511511512510510515512515517514515512516514514511511508510511511508510509510510509509508511512512514516519519513511512511512510510513512511510511512511513512515513510510510511512511512510510511514511513512514512514511512515511511509512510510511511512513513511512511509513515511512514513514512515515512512511513514510511510510508505512512512512514514513515514512513512512513510511510513512513514512512510505510514514512511515517516513514513514514512512510511508509512514509513513511511513511511511511511510508511512512514516511510507510518512512509512513510508512515519515515513513509510510511509507510515512513512511513513513513513513511513513514510509513511512517515517510511508511512512511511516513512510509510510510506511515513515515514512509510511512511511511511510511511514512512514515516515515514513515512511510512511509508508506506508515515514512515517514513513509512512513513512511510510512511513512511512512513512513510512512509511511512513513517516511511510512515512513510513515513515512515515517512507508511506506507511513512511513511512510510509511512517518516515511509504503509511511511510511517513514513513511512511512509513512513512515515511514512513515513514514514512510512515514514511514515514512511513510510510511511512514511511511511511511508508507510511512515513514516513512513513513511514512509510513511510508513511515514515511513512510512515518514510512514515513516514511508505509511509512510508512513513513511509514512511512516517515512512515513511514513512512507510512511512512512510514513511512513513515511510510515515513513513511508507510511514515512511511513512511512513513513513511512512512511511511511512511513511512512512512511512510512512512512513515512511514511513512513510510511512513513513512511512512511509513512512511511510510511514511513513514512510513510510511510509510513512513513515514514513513515514511513511509510512513512511512513513512512512513513513515512506511510511512511512513509511516513513510512511510508508510511509511512514515512512511514512513512513514513511511511512513512511511511511511512512514513514514513513513512514512513513513513513513511510508509513511512511511512514512513511513513512512512513514512509510514512513512510515517513512511514511511514513513512511512511512512513513512512513507508509512510510507508512517516518515515511508506508512514513514512512513518516512512511511509508509509510511510512512511514513513512512514512512512512512513512510512513510513513511512511514513513512514513511512512513515516516515513512511510510510513509510512511512512510513511510513511510511513512511510508512512512511513511512510511511511511512511511512512512514513510511512513516515512512511509509510511508511510516515515515514513513514513513512510511513511511512513513510511512512512511512513512512512513511513511512512512513513511516511513509511509511512511512511512514511514511513512516512512511511511513512512512511511510510511512515511513513513515513513512512512512513510511510510511511511512511512511512512510510512510512511512513513512514514516512514512512513510511509515515513513513511512511510510512513512512514513512512511511511513513512509509510511508509511515513511511514512513512513511510511510512514511512511511508508511514512514512515518514509512514512512512513511512512511511511514511513511512512511514513513512512512515514513512511510510509513513511511512512511511511512514511513511514513514513516512510512509512511512512516515514512513511512513512512512509512513514511511511510511512512512510509511513511513510511511512513513510509511512511511511511509511509511513514512516515515513513514512515515512512510514511512513511511512513511510511511511510511511513509511512513514513514516513512512509511510508509512511511513512511511512511512512512513512511513512514511513513512512514512512511514514511511513511514510512512512511514511510510512511510511512512512512514513514513510511514515514516514514512511513512509508510508510511513511514512514511511513511510512510513514514512512513512511511510513511515512511510510513511512512512512513512513511511512513512514513512511511510509512511513512513510512514513512511513514514512513513512512512510513514513514515510512511511510508509509508509511511512512513512511512517516514515512513511509513513515512513511509512512512511512511512510510511512512513513512513514513513513512510513515512515514514514511511511510512514514512512512512513512514517512510506509510511511513512511510508512512511513511513511511512512512513513512513513512514511513514512515513513512511512512513512511511509508511510511513514512512515513514515512511510511509513513512512511510510510511511513515517512512512512511512514513516513508509509508510511511511512512513514515512513513512514511509509510511515518515514513511513514513512512511510510512513512511512511512512513509510515516511512511511510512511509511510512513512512513515513512512510513514513513510511511512513513512510512513511513510513511514513511511513511513514512511511511510512511511512512511511510512513512513512514513514511510509512515514512512513511510511511512511511512515513510514513518516513510510512511513511512512512510509511514515515513510506508511514512514515513513514512509509510513513514515515513511511511514515511511512512511511511511511511515515513512513511510513512511514513511510511510510511511511510509509511513513512512513513516513515513513511513511512514514510510511510511510512512516517516513510509511511510511512513512515515510510512511513512511510511512512514513512513511512510512512510511511510513510511512512511513512512512514514514512513512511512512513516514514512511511513512514512510510513511512511510511512511512512511512512514513512512511509508510511513513512511511511512512514513513512511512511510512510510512512514513513514512512511513512511510511511510511511510513511510512512513516515516513511512512512512512513514512512511509508509509511514513512511513513512516514511511508506505510511512513515513513514516513514512509511510512511511511513518518515513512513513513511514512507510511512513512513511514514511511513512510510510511511511511512512512512512514511509511511512513512510511508507510511513515514514514514512512512512511513513510509512512514513513512516516516515514510506508511511513512511514512512511510511510508510512512513510512513515512512516513510511511513514511513513512511509514512511512511510511511511511513514513511512512511512512514511513513512511511513513512512512513514513513512513514514511511511513514512512512510511511511510512510511512511511511510510510512514512508508511513510511511512513515516517514516514514513511512511509512515515513513511511511513515510511512514513510512510512510512512514512511510511511512512512510511513512511509510513510513512513514514513513513513511512512511512512512511512512511512512512512512513514511513512513513513514515513512512513511511512513510513512512511511509510508510511514511512513515512509511511513511512513513514515512515512511510509512513512511514513514515512511512513510510512509510511511510511512514513515515513512513511512513514512513511511511513511511510513512512511513511513512513512511511512511511511510510513512514511512511514512511511512512512513514512512512512512514512511511511512513513513511512509511510510510512513514513514511513514513513511510512511511511512512512512511513512512512513514511511512511513512512511509511513511510510513515512511512513513513514512515513513512514513513512512512509509511508507511511512512512512512510512512511510511512514512511514512510514512512515512512513512513511512513512514513512510512513512513510513513512513514514512509511511512510514512513514512512509510508508510513513513514509514511512511512512513513513511510510510512511510512511513511513513514512511512513512512512512511512514513511512511508511514515513512510511513513512511511513511511508512513509512511513512511514516514512511515514514510511513512512514513511511511509512510511511512513513512515513514511511513512513512512511512510512512512512511512512511512510511512512513512512511510511509512511513513513514512512510511510512511514511512511511510511512512513512512513512513514515513512512510512512511509510510512511513515512510511513515518514512512513512512507509509511513512512512512511511512511512515512513510512514512511512510515512510508510511514513510510513513513514512510510513512512515513512511511510508513514516516515516514515513507511511512511511514512513513511513511513511510511512513511511510510512512513512513511512512512513510512512511511512513513512509512512511509510513513512515514513511512512512511511511510517513513512510513512512508510513510509511508508510510512512512513515512515514512513512512511511509509510510512514514514515515515516514513512513512512512512511515512512511513510511510511510510511510511514511512512514511510512513512512511512512511512512513514511512510510511511515514513513513513513514513511512514514512513512513512512512513511512515514515511512511513516510508509510511510514514515512511512511512513511510510510512512511513511514513512512510512513515509510513509512516512515512512513512513512513510512515513512512513513512511510505507507510511514513514513513513513511514514514516515515512511512508509510509511508509510511510511512512512513511513513513517515514509507512512512515515512513512513508509511513514514512516514513512512508508511512510512511510512516512513512510511512511512511512510512511512512511510514513512512512512512511513512513515515514514511511512512509512513511510511511516515512511512513514511513512511511512513512511512510513512515513510515515509509509510510511513512511512512513513511511511510508511511512512512513512514514513511511511515514513511511515515513514513515511510508506509510511511511511511511515513514513513512510507509513515513511510511508508509512515514516515517517519514512514512512510507507507508508512512512514513515512510511512511511511507507510510513513512511512510510509511511511511513514514514514515514514513511513512510508511511510512513515515514515515512514512512511512512511511511509509510512512510509510511510511512513509511516514513513514511510511511514513513513515514512511509512515513515517516514512510506509512514512515516515515512513511508508509512516514511511512513511509512513512513509507508511514515513513513513515513514513512512511512512512511512512510513515512513512511510511513512512513510511509509508509511512511511511515515517516513514512511511511512512510509508508510509511511517517513510509512513511511512514514512510509512511511513514517511515515511511509511508510513511514513512511511511514510512509510510512511512513515513515513513511511511512511512513511512512512513513512512512512510511510512512513514513514512515512512513511512511511514511511512511512511511511510513511514512512512513513510511513513513512511508512512512513512510512509511511512513512512515514511512512512512515511511508505507512515515515515519517512512510511513512508510512513510511513510508510511512510512514513514510512512513511512512513513514513514512511513513513512512510510512512511512509511513512509510512512511512511512513512513513514514514514513512513509509511513514515515511510509510513512512511514514511510510509510509512512513513513513512512513512515513513513514512513509509512511511511510511512511513513513514512513512512512512508511512512512513513514515516514513512510511512513511512511512511510510511508508508511511512515512512509513513512513515514515512514513512514513513511512513511511508511511514510513515513512512513511510513515513513512510513510509508506510511513517514514513515512509511514514513513511510511511511513511513516515515510510513512513514513512510510510510511509512512512515513514512513513510510510510511512513512512511511514512513513512515511512512510510513512513512515514515512512511508506510512513511515514514512511509509509509511511512511512512512513512515512513512512510513512513509511511512513512511511511512510512512515516515514512512512509511510512511512511512511514511512512513513513514513515513510514513511511512511510509511511512513513511511513513514512512512511512512513513514515513513513513511510510509511512512510512510510513513511512513512512514513512511513513511506510508508509512512513513515514515515512509511509510512515516515513515514513511511512512509510508512513513513512512512511513511514510512515511512512511512512513513513512513512509508511508509512513514515513512512513511513512512510511513511511511511512512514514512512512511513513513513515514514513513511509508510511512511512513513512511510510511513511510512512510508508515513513514517517513513513511510510510511512512511511510512515513514511510512511508507510510512513513515515513513512511512511514512513514511513513513512508512513510508509512513513511513512514512512514513511512513513513513514512513515515512513511511511509509512513514512511510512515513512512511508506512512515515513511512511512512512506509512518515512511512511512511510508512510512512513513513514512512510512512511514513512513513512514513513513511511511512512511511513511511512512511512511509511511514514513515513513513515511511511508513513512511513511512512512513514512514513511509511512509511511509512513515516516513512512512510510511508506511511512513512512514511508510512512512512511515515515515511509509508510515515515516514511511512512514513512513510512512513511512513511508512512510511512512513509513511513511512514515515512513513510510510513512514511509507508511516519516515514512510513512511512512510510511509510510510513513515513509510513513512513513511513514518514513512511513508507509511510510515515510510508513511513514511514514513512511514513512511514510509509511512512514513513513514514515513510508504508510510511512510511513511511515519518518515511510507508506511517514514511511512513512514515515517513514512511510513512514515511511510510512512514512511511510511514511512511511511511509509511512510511509514514515512511513514514515512508509511512510513510509512511512512514512512513512509510509511513516515513511511514515516516514511514512513513511511510508510511511511509512512511511510509512511511512515513510511514513512511510509513513513512513514511511512507509511512515514513513511510513515512515514513515513511511512511513511511512510512512511510509511511512514515516513512511513511509508512512512514513512512514517515512508509508508509511511513518521517511510509505507508509515516515511510507512510509512510511512513511512510507509513514513512511512508506507510512514518517518515510512514515513513515512512510510511511512513513514516513513511511511512513509510511513509512510513514512514516515512513512512511506510511511510510511513516512511513515513510511513512513514515512509511510511509511513515515513511513512511505507510511512513514516513513512518518514512511510511508507510510512513511510512512511512515512511510511515513513514513513511509508510513512512511511510512511512515517516515512513512510514513510511510510510510511510512507511513512511512513512515515512510511511514512512512513512510511511512512509507510513513514512512512512512514513512510512513512512512513512513511512511512513513515513511512511512511511511511512513513512510509513513515516517513512511512510510510509511511512514512509511514511513512511511513513512510507509514512515515513511511513516515511508506509514512514512514512513512512511511511510512512512514512513515515515518513511512511505510512515511510508512512511510512508512511510512513514515510512512512513513512509510513512511511512515515512511510511511511511512513510508511514515512512507508510511513512512512512516514511511513515517517517518512511510509509508510510510511516515512509505504510512511512511512512516517516515512509512513515514512509510510512514511513512513511509510510512511513514512515513514515511509510512514512510509507508511511510510515516515514512513514508510512514515514513513511508507512514515516515513516514514515514506508511509508512512510510507509510511514512514514511510512511511512512511511512513513515511511513511514512513514511514511514513513514511510512510512511511514515513511512512510510511512513512514512513513511510511511512512512512512507511511506510511513513512510515514510515516514512512511512511510509510513517514509508509512514516521515509510511511510513510511511509511512513512511510511512511512513514515514513514511513512512512511512513511510510514512512511513513512508508506509510512511512510511511515518518512514512514514510517514512509508511513509509511514515513513513513514513514515511509508513510512512514513512510511511511511511511510510515514511507511512512513515512512513512511512510511511512513513514512511511510512512510512513514514511512512512512512510511515516511511513515512509510509510509512513511513515517515514513513512513511512509513512513512515513511507511512511512512512510509512512512512511510512514512513514511512507509512515514515514512510511510510511514513512514517515516513513510507504507508515516511511510511513511510510515515513511510509509511511512513513511512510510511512514515512511515514515512514515513512512510515514508508510512511511514512513510512513510513513511511512517519511506511513513511510511512511515513511510509511512511515512512512511511509508512512512510513512513514515515512512512511509511511513515512509510510511510512513514515515517514515509505510512512512511512513511509512512513513511511510509511518515512515514512511512512513513510513513514513511512509511512512508511513513511511509512511512512512513511511509511513511511513513510511513515511509508511512512511513511511511513513514514516514513515513508510509515516512511512513514513511511513512508508509509512507508513515520520516517515512510508507512511512513511509510512512513512511509511510512514514515515512510507508510511512515514513512511511511509511511510511510511512512515513514516516515515511511511510510510512512512512514514514515513515515511513513515513512511508505510511515511512512510510510513510505511514516516512512512512514512513514509510513512510510511508511511513514512514512514515515514513511511512510510514512508508511513513513517516515514511511511510511509511514513510508510512514514516514514512512511508507509511511509510512513513515514513514511514512514511510511514515513512512512511512514511508511511512511508510508505511507513516515514516515517516513512511513511512515513510506509511512512512513513512511511510511513512512514514514514513510510510511510512511516518513514512515512510511512512512512511510510510511511512512511510513512513511510511510511512512513513514512513513508509512510515512512510510512513516516514513512511510508507516515511511511511515514516513512511516513510512511508511511511510512511514516515515511511511510511508507511513515512512513511511509512514516515515515515511510512513509512512509508508511509511513511512512512515512513512510510513515517516515515511511511512510510509511512516515510512509505510513513516515515517515512509507506511515515512510508510511510511512511512514513511514513510512511512510512515514516517517512513512511509510510510511511512512512513514514512511510510511510510508510513512511511509516519514513511513512511511511510508513515515512513517514509510510511513517513515515503500504511514517515515512514512513513507510511509510509511515515515515512510514511514513514513512508510511510511507515521517518514511510509510511509509513511511509511511512510511513511513513511511510511511518516513516514510511510512511512510508509512515515511512512516513510512513513511511511512514513515516511514513511509509509508512512510513512510513511515513509511513514512512511510511510511515515515512510513512510510511515515512512508506507512510511514515514515513513512512511511514514515512513513513515516514513511510513509510508510511512513514511514510511511510512510511512513513513515512511511512511512508511513513512518518512509508510514514513512514511509509512513515514514511512513513511510514510508511512513512513512511510511509512512513513513512512511510510514518513512512511517515509510513511512508510507510508512510509512511508510514514513514517516512514513509508513512512514518517513511510512510511510514518511508512512513513513511512513510511511512512512512508506509516514512512513512509512513515512512511510512510513512511508510513514515515515512513512514511511509509512515515515515514515512509509510512513514511511510514512512513513511510508509508510511513513512512511515514509510512511510514517515510510515513514510504507509512513515514519516511512511512513513516514512513513511515514513511512512513515511511510514513514515513511508508507508511512511512515513512512512512512512510509506508512512513514515512512512512514511516512512512512508508511513511511511512514514514514514514509513514510512512511513512512512513515514512512512512511510506508510510511512519516512518514510510513512512510515513514513513511511510510512513514516512510510510512512511513513511510510510509511511510512514515512513508508510513512513512512507511510512511507510513512514515519515509509515516515509516513514511510510507507507509518513516514511514514511510507510514513512511515513512512512512512510511512511512510510511514517515516516516513511513511510511512512511512510510515515514509510512511509510510508510510510511511512514515515515513512510514511508510512513513512511509511511513513512510512516515515513516514512508505504510513514513512512512510513514511513510514514515518508505510510513516512512515515513507508507511514517517512509508508509507511512512517515511512512514513514512512512514513514513514510513511510510511512511512509511513511511511510512512512512510513512518518517515510514513512517516512507506510510506510512512515515514511511506509508513512513512513510513513513513513511512512509508508509512514511512511509512514514513514513509511511514515514514512511512512512511509508510511512512514512514513512513513510514514513516514515512511510511511512513512515513512512513513512510511513513510509511513515512512510510513512511511514512507509512514512511512513512513513511512511514513513510512512510512509507512509510512514512510512514512515511511513516518511509510510509511514513510513515514517514515513512514511509511512515512512513513511510511512510510512512512512512513513508509510511513510510512508510510512513515514517516513514511510505508513513512512511510513513510512511513513513511513516516512512510512513512512512511512513512515513513514512514512511512510507513515515510508509510514513511514514515515511508510509512512512508508512514509514514513512512512512513509509511515515512510513510512515511508508515516514512513515515515511511509509512513515512511510512512507513519519513508510511510509508509508511512512511512512512514514513515513514514514512513514515514513512514507508509508510512513512512510510510510510511510513513514515516517515512511512512513516511508509509509508508511511513516513514513511510511513509513513510510510509513514513510512511515517517513508508510516517516513509507510515515515515512511510507510510515516516512509512511510514512512512513512510512511511508509509512516518515514510509512513512510509513513511511512518514508510511516514513512508509510512512513510511512511509509512511513515515514512512511508509512515511513510512512509511513511514514516516514513513512511510512513512515516511511508508511515513511512514514515513511514508505510510510512511512513513512515514512512516518515510510510514511511511510512510511511512512510509511517515510511511510508511515514510509510513512516519515512510512512510511513512511511511512512511513509510512514513512512511509511511510512513511513511513513511507512513511513510512513514515512514511511510509513515514512514515515516511510511512511512512512511512510512513512510511510509510512510510512515508505512512511515513515514512511513513517513511511507513514512511511513514513514513511510509509512507504509514517514510512515511511510511509510511516519513512515514513506508512511513513514510513514514512509511510514515516513513513512509508510511512512512515514514514511512511508515518521512510507506510511512514513514513512512510512511511507508512513512513512512512511512511514513513511508513516516516515512505504506513516515515510511513509512511513512515514519513513510514511513512509508505510513514516515515513511514512510515509511510511510510508510511510512512513511510513511515512512511513512515516511510512512510510510513513514514515514511511510511511514511512510513513515513513512511511510511511507508511515515511512511512512513509508510512513511513516514510515515515515515515514508510511512508509511509510508511515515515510512510508510514514513510509513513515511508508512515509511510512512512514516515512514511510512512513512512512512512512509512512513512512512515513515513513511510511509509508512512513512512511512513512511509511510510510509512515513510513515512512512512514511512514512514515514508513512516514515512511510511510510511511514512510511511509512512510514520515512511512512512508506512513513510509511511511508508516513512513514516518517511511509511511511510512515514512510505505507510512513513512513513512510512512512512510511512515512514515515511507509509513515513515514511511512511512513512511511511511511513510510514512512512512510508509510513510511513512515516511512512513512513516516514516514510507508506505510508510514518518517512508510511512514511511508510513514513511514512515513511515511509512512513513512510510510512514512513511513513513513513512510511513512513513513511512512511513514511510509511512511511512516515509512516515515514512510511512512512511510510508510509511512511514513519518518512511507510512512513511512511510508512512514514513517511510510514515514512514512512509512511513510506507511511516512512513513512511516515515515513510511510509510512513512510509511515514513513511513512510511511511508511512512512512514512514512512513514513514512512513511512512513510511513513513511511512510510511512515513509511511512511510510513515515515511513514511511513512512514514511513512513511511510508510513510510508508511508503510517519511511513518521512507512513511510513513512513512511513512509512514514513511511508510514518517515511511513513509509508508511513512511510509508511514515513515512512512511513512511510509510512517515515513514507510510516520511510510510511514512512513509512513512513514511511510512512511512513512513510508506510511512513514517513514514513514512508512512513513512512512513512514515513506503506510512512512510514512511514515515512512512508508509511511516512513514513511511510511513513513513511513512514513514512513511510510508508509512514516515512511512510512510511511509511512511512515512509508508511514512510510511512514515513510511514514514515515513512511513515515513509510512511514513516518521511514510506505510511512510513512512512509508511511515515510511513514512511512509512511515514512516514511508508508512513512517516510510509510513509511512513512510509510515513511511513511513516515511512512510510512511511509508510512514514514512514513513511508512511513513512513516514513516513511508509510510509509508510515516515513514512512511510509509508511513512515513512512511512515512514515519512511511512511509507508508511512509509512513511512512512514513511513517514511513514513513512511513512512512514513511512515513515514512510509510510508508511520518513511511508509513513511511514511514514515513512513513512511511510510510511512512512509512511509509512512512514515519516511507510510511511511510512510505510512516518517514513513513512511512510509516516513512508508507508508512512514512513512513512511513514512513512510509510512512512512512514516515513512511508508505510514513512515511512513514510508511513514516518515512511514512511506509509514513513510507507513513513515515519517518515512505509511514510508507508515513512514511512511509511511512512514515512512513513510510509509510511512512511512513516515513516512512511510508512515512513512512513513512513510511513512511511515515511512511513514512510510513513515515510507509510513514511511511511510512513510512514512511512514512512511512513512513510511514513511508509513515514512512515515515513511511510508508511511511516512512510510512515512513510514513511505507509513516514515516512514514513510510509512513512508515515511511510512513510510511513512513511512511512511510511511512508512513515513509511513512512511514515513512512513512511510509511513512513506511512513511511513519521519513509511512508509510511512512511513511513510510512508512512511511515513514514514511512512515513509511512515515511512510512514512509510511510510510510513514511509509511511512515512509509511514517515512513513511508507511515514515512512513507508510514517516516515513509509508510509512514515513511511516513514515514515512509510509511511511511510511509508508512512516514512513513513515513515515512514508509512513514517519516511508506510510510516516508510507512512511511511512508512516515514514513510511512516514512509509510511511512514515515512512511513515513508510510511511510512513511511513513514513511509510512512511512514513510510512519512510511511514511509506507510511512511512509510513512512513513513514514514512515514515515511510511511515516515516515507505508511512511511511512511510511511514515514514511513513512513512512511514513510511510513515515514511511512507504508511513513514518519511510512512512512514515514509507507512514514513514514513512509510512510509509512511511511508509512513513512512515515512510509511513513512514512511513511512511515515516523513512508509511508510511515515512511512511512514512515512512511510510512515514508512514515513512513513508508508510509511514513513514512513511511511512515513512512514511511513515515514515512508507509508508508511511514515516516515513511507509512513515509509513515515512513513511511507511513513514513511512509507510513516513511511513508511510513513513511514512510510510511518514515513512515514513507508511515514508513515511510512513511513512511510508510514514518521519514508505505510511513514513513514512511509511511510510510509511513512511511512513514512510508507511513515515515511510508511510511507512513514510510513513514517518512512515510509507508512510512514513509510511514513513511510508511514515515513511513514508512513516513509512514512510510511509512514516513514515513511513514513509511512510510514511511511511510509511513514515512510506508508513514512512513512515513512512510513513511511511511513512511511510513513508510510509508508510508510512512515515513515515516514512511515511514514513511511511513513515513516518514512511510512512513513510506507513514510511508511511512514515515517511512512515512512513512512510508510509508512512513514513511508508510514514515513511516512516516512513512514512510513508507509511510513514513513511507509512511510512514518516512513516513511511511511511512513510509513511510511512510511513511508510510512512514509510511510510513514515514513511511513514517515513513513511513512512511510511510508510511512512506505510516514512511512513514512514512511511515514515516513512510508511512511513511512509511511513512508510510510510511511514511511512514512513511514512509511512512513515514516515513510511512512513512512511509511511510512514514512512511513511508511513510511511511512512513514511510512515512515510511511510514513513514513516511512516515511513515510505504508511511509515515515513514514509507511512513512513515513513509509511511511513511513512514513512513513515514512515513515515511511513510508509512509512511510508512511513512515512514515513513512512512511511512513513511509513511511511511512515515516517515513514513511510510511507512514511510512509508508508508508508514515514518516515511510510510510511511514509508517513514515511513512511508512512513511512513510510513511512508510513512510514515513515518511508512511510513511512511512514515513512509509507512508510513513515512511513514512515513511508509510512512510512514513514512515515513511511515514514515513511510509510511513512511515512509509508511510508511513512513516516514513511515516518517515513511512511511507507511513509508510512513509510512512513512512509514516514513512513513512508508509514516520513510509508510511511516514510513518512503505510510511511513511516518515512507510516517512510513511510508508513512512512511512511513515510513517515513512512514513513511510508507509509511513512512510511514512513513515517515514511510512512512510512510513513513512515515514513511514512515510504508508511513510507511515516512511512515515512508514513508508514515514512513513512512510512511511513511511511513513511513514512508505512514514511509512513514516513515514514513508510511511507505508509512516515512515515512510509511513518517515515514510510509511514513512515516511514513515512510507509510512512512511509506507511516512511508509510511513510511514514513513514513513513514516516516511511509508508508509510512516509510513514517515514510507509511512514514514513515511507506509508513511512511513514516518516511512510511509511513512512513511510511511509510514516514514516514511508509512513514515514513514512513512507509511512510513515514508508511509510509512514516514515515514513508507508511513512512512515511511511512507511511512510511512513521516510511509511513515515511508509508513511513510512512513512517514510508508511513512513514518512512507511513512512513512512509512515517513508508508510511512513514515513511512511512512511513512512512509508510512517517511512512511514513511513513512510512513508510512515514513509510509513510512513513515514511509511513510511511510510513514512509511509513516513515518514512512513511511511513512512509510510514514509510512512510511512512513511511510508508513514512512511511512514513512515516510510511511511512515512512510510512512509511514516512511513512511512515513511509512513513514514515511507506508508510512514514515512513512508508511512515513515515513513511513511511512511511511513515513510509510515515513512516508503508513513515518516512509513512510511509512510508513511513515518513508512511511515516511510510512513512510510508510513519514514514515509510514517517514510510511511508513508509510512510508511515515512511513514512511511509508510511507511513514514513513513516515511516515513511511508510515514513513512510508509507515513511511511514512511509511513511507510510514513513514513513512512513514514511512514512514513510511511512510510511515514513514512511511510513513512514512513514512507507505510511515515513515515518513513511508505507509510509510513514512513512510514513511514515516513508509513515515512511511512513513511510511512510511511510511512516512510512511513515515512512511507511512513511511511513513512512513510511511511514513512511511511513512513513513511513511510512512515515513514514513506511513514510507510510508511512510512514513513512511514512511509511510509510510511515512518515517516509508509508508507509513514519516515514515516513516512507510513513511512512512511509508508513511507512513512514515514515512515511511513514513513512517513508504510515517516515513509505506508505507506510514514515515514512516513512513512516512513512509509513512515512511513515515511510511511509508508510513513512513517514511511513512512509508510513511512515512513513511515515513511508510511511512513513512513511511512512512510508509508511513513515519519512512513513509509511514515510511513510505509509515512508507507510513516513511516515514513513513512513508508513513513513514511513513513510509512513512511511509511510510510512515515515514514512511507512512512513518518514513510508508509513516513515515515517511508508510513515510511513514510508507510511512511515511513512515514515510512514511509510509511513514515515510509513514515517515514510510513515512511509508508509513511511512511512507508511510509511513516515512510512511513512513513516513512512512516514512512510510511512513511509507512511510511510512513512511509513515516515512514509508510511511515519515509508511508513513515515515509507510513515512512511511509510509510509508509511514516517514510510510510512510514518517513513511513515516514515512509512513514513515511510510511511509511509511513515511511510509511511511512513513512511511516515516513511509507510511513511512511511512513515518515512512510508509513515510511514514512511510514512513513513514513512512512512513513512510509509510508508511511511513513513513512510512512509508509509511513515520520515512510510511510511510512511513513514511513514513511511511514515515514511509509511511511513511511509511513512513512510510509511509513515513513516515514513512513510510511509511511512510508513515514513513514512515511514511509504506510517518515512510508512513516512512514514512512513510511509509512512510512514516514512513508507509510513508508508513514510515512510513518515515515511508509509512508508513516512516515515514515513515513514513513506508509512514512510511510508510512511517518512513517518515513514511507505507507509511514518514510508509513515514512510510509511511514513511513510508512514515512512512515511513511509513512513511512511507511513515514514516515511511511513512512514512509503505510508508512516516513513517515514513512513512511511510512514511511514512515513514513511509510515512509510511513513512513513514513512513510511510507511513513512512514512512510511512512514515511512510510513514513514512511510510512511513512511511511512512512515515513511513512513518516514512511509511511512510509506506507512512511510512511512510515517513515513515512510510511511511511515515515512512510512511511510513510508504506509513515519514513518515512510511513515514512510512513512512511509511513514510510512510509504510514514513512511511512511513513513511511514513512511512510512512513514512513512513512513514512513512512512513514510512512512511511511512509508513515511511513515516512511510512514514513511511510508514515512512511509510513511511510508510511510511511514515515513512511508511515515519513510512507512515517512512512512511512510511512514513512509510511514517515512511510510515516510511511513516515512514511512510509510512514514516511513512511510510512510515515514512512511510511513512511510513511510512513512514514514514513512515511510507511512512511515510510508512510510510512514513511511511515512509510513511510512512512512512512514516512512513511513515513511510513513512511513512512511515515511508508510514515516513510507509509511515512513515514518518511507510508511513516513515513510508507508509510513513509511511515512512513512515514515513511505506508513513514512515514515513512511512511512513513511512512512507508513516511516513508511511515513513514513513513512511508509510511514517511510510512511512512512516512508511512513512512512513516515513513511513511512515513511512511508507509512509512514512513511511512513515511514515512511511511512511509509513511513513512510511512519516514514512511508507507510512514513511507508511512512514510512512515516515514513514512511512515511510512513513511513513511513512513511514512513509508509513514513513513512509512511512514511511514515512512515517514513511509510510506507509511513512508513512514514515513513514512512513512513513511511508510508510512512514514515512512511511510512512512513513512508512512512511514514512513511510510512511509509510512511511511515515513511515511510511512512512510509511511512514513511513512512512516515511512508508509511512510512508505507511515514515515515512509511512512513513515515512513513512512512512507510512513513513515516516511511511511511513511515513512511512513513512511512510510510509514513513513512512514512513513513512513512515511510510510513515512513513507510513513513511509511511511510513518514512511512511511509509510511513515512512513515514510512516513509512510511508510516515513511511511510510511510513512512514515511508512510511512511514513513510510509513515511510511515516515515512512510511511513512511510513512512513512511508511510509512515515514513513515511508507510508512512512515513511517515509511513513512510511512511513512512514508511512512511513511512513513508509512512515515513513513514512511511514512515513513510512514514510511511508508507512516519516511515513511510511512513512511510511511511512518517514512512511514513512511508509513511509510512511510511512514511514518511510508507508508508509508519519518516515510513509508510512513515514517515514512513510510510512510507510510511512512515512511513515518513513512507507507512512509509508510513513515515516514515512513513514516514512511511508506511511511510511510506509512514517514513516513512512512514512510509513514514513511515514512514513509509512510510512510511512515513515518512512510511511510508513511512512513509510511515517514510510511510508512515515511512511510510510510511512510512512511513514514513512516511511510509509510512509512511512511514512511510512513513512515517515513514513511511514508513516519512508506507510513513512511511508510511513513515515510509510510514515516511512511511515518515515517511509512510510510510514512511514514510507506511515513512512510509512513516518514515509504504506510515520521518514513513511510510511512513510510512514512509506507511513515513512512512512512513512511512513513512511511512512514513512515514507511513509511510512511513512509511513514514515513512514513512511511512511513514514507511511514512511511515516510510513513512513513512515513513512515513510510509511506510514511510509512511513510509509512511513511511513516513515516514512511509509511510508511511513511512511513511512515514513515511514513517514511511510511514513516513510508508514515511512513511511512514513515513511510514510508512511513508511512512511512512512512514512513512514512514510513514512509507511512513513512512512510508510511512513513512510512512510510508512515515514511514517514511514514515513510510513510508508512515513511514514514515514514512509507511512512511511510509511514515514513513513512513511507512512515514513508507505508513519521520515512510507509514512508511510510514514514515511508505508512511516518511508509510510515514509513518511509509514513514511513510511511513513512511506508511511510510513515514515514513510508508514515516515509509517514512515514512511508512509508515519516514512513512511508511509512512511512518513512513519515510509511508508514510509510511515510508514511511512514514511512508509508507513516515512511515511513507505510515519517514512514514512508504504509512513513513512514516511508509512513511515515513514512512512515513512508513514512514516514512514511511511510511510514512511511509509512512513514513510511511512512514513512514512512517518513508513519513508508510510509511514516514510510510511512512512512510512508512513512512515512509509510511511513514513510509508511512518516515515514513507508512511512512512510510513515514512508507510510511516515512510510511514515515512518517512512515513511509511513511512512512511509512511507508510512514513513513510512511511513515509509513513511513512512509508510510511513511513512513513513511511514513511512512514517513516516513514512510508508508509511513509510515518516513511513511505503509508509516513511511513517516511507511514516514513513511516519513511508506505511510512511515515513513512511512514514514512512515514509506510512512515514512512511510512512512512512514512512514513513511510511509509509509512514513515514514511511511511513512511511510509514512513514514511513512513515512507509512510508511509513515516511511511512513513515514511511512511510507508509511515514513513513512509511513513516513513511513512513515516514513512511510511512511512512511509508511509510512514512512511513518511509507507509514517514515511511511510508510509511512514515512510512512510509512511512512509512512510513512515515517518519514513510512513512511510511513509508510509512512511508511510511512510514513514515512513511513512513511510512514515512512511512514511511511511505505511514514514513513513512513511512511510515520515514510508511513512512513514513515514509506510509511511515513513512515510507508508509511515513506509512510515521519515511510508511513513509506505510511516517516515514515513508508508514515516515514512511510511508507511512511515512510512511512510509511514516514513512511515513511513512512510513512514507508512514513514513513513508511511510511511511510512509515515511510511510509511511515515511512508506512512512511512513513512514519515514511510512515512512510513512508508512516514511504506511514516518514510512511511512513509512512511508511511513513512513514515512514515516512507509510512512515510511512512511510512512512513511512513514514513515517515513510515511510509513511508506509510511511511513516515514514513509512509510512510511513515516518517516508499503511513515515515516515511511510508506506510512514516516510508507512513513516511511512510511513514516512510510509511508510509513512515517515515513511511508511512514512515511508511514513516518512510511509507511513513512513512510512511509511515515516514512512516513511510512513514515513511509510512513510508514517515513513511511511508510512512515511504507508507508510516517516515512512512515513510508510512511510511511509513514509511514514515512510510513514513512510514514509511514515509509509511512512510507505509514513512512511514511511512513513513515509510512513515511515517517515512510508509510511511511514514511510507507508512518519516515512508502505510513513512512512513518517515515512512510511512511512512511513512515515516518510510511510511510513511505503509512516514515513511512510510512511510511513512514512511510510511512510512511512511508508511512514515514514514515514512512507505509516516515511509511514515511509513515515511508508508509520520517511513511514513512512511512509509509509510511511513514511512511511511513511514515513515514511510509511511511510511513515512513513510512513514513514512512510511509511512513513512511509511512513511511513512511512509513513511511512510512511512512509510511514514515521516512511509506511508508512511515519517515512512512512513515518519515511510505504504507510515514507509513513512512511507509512513512511515512515513511510511510511512512512512512512511511513515512512511510509510508512511511513513511513512513513515516518514510512512511510512513513514511511513512515513514511502504512511513519520513512512511511513512511514515512511509509508511514512510510513515515514512510508509511510512519515510511512513513511510509511511511514513512512515512511508508510511514516513511515514514509507511508508513514515516514514510511514515512508510514513511514511513512508511511512513513513512511511508510512511509511516518514511511513515513512513513513511513513510511511512512510513514511507508511512508510512512511511513513512515512511511512512514514513514512512514516514509511511512517515509508513513510512512510509512511510513511511510512514514514512514512509505504509512516515514512511512513512512510510512512513514513511511512517519515508512514515510508504505509507507510515518515516518513512509510513515514514516512511513514510512514513512507509508511511511510509509513515513511511512510511510505513514512514513512510515515510512512511511511511512511511512512512513516514513514513512511509511514514512509509512515515516516514508505505507511512514515516515513509508506506503512513516515517515516515514513515510511508509512515516515509510515513513511507508510512512514513512512512512512508510510512513512511512511511513517516512513513511512510508511512514513513511512514511510509511510509511512512512510512518515511511510512512511510510510514514515511514519516504502511515512512511512511511512511513515511511513515517516510508507515514515512513511508507509511514514513513512508504512513511511512513516515512512511515510509513516512511507510510513511512511515516513513508511513511510511513513511512512512510520518511509508510510513513515514514513510511511514511506509509510511512511512513513513516513512513515513511512513511507510512513512513511513512514511511511512512510511512512512509508511512512511513513511513512511508512515513516516514513512510510512512509513514514507507509518511511510514514516516513509506505510515518515515518516509504506510510508507510514515512511512517518516518515512510508511513512512514514510507509513512512512512515511511511514512513511512511511510509510510513512512511508508512517516511512513510510512515513510511512511510514515513515515514510510513514515513512513513512512507508514515513514510512509508511507511511513512512512514512511509511514512509512514514513516515513512512510515510507507511510513512513513511510511513514515515513511511513509510511513513518514517514511511514513513512511512510510510504507513517516515513512509510508509507512512517515514513513511505507511513512515520512511513513511510512512515513513517514513510511511511511514513511509508511512505508510513515520518510511514515510509511512510512514513513513512511513509511511508513512511509510512515514515513515512509508505505508508511515517515513510510514508515514516517519513511517518505504506511509507509516515513515513515513511509513512509509512511510512511512504505508512516515515514513516513514514512513515511510512515515515514514513511511509508505509512510511512516518515510502504513515523522510509509503514518514519516513513510511513511507508505510508508511512515511510513513517517514521511507511513512514515517514508512512513508505504508512511510511512513512513514516514515515512513510512511512510510510512517515515512513513513508507511511512510511509507511511516516516513511511511510514517518514508509511511513515514511515515502502508512512509512516518514509511511512508507512514517516515514515513515515515511510511512513513512518515509505506512517512512508506506505509518518515517516512506507512513513511510516514510506509517511508510511512514511512515516512511514513511511513517516513511508505506512510512512510513515516518512512511512511511512512513512512512510513514510503505511515514513515513515514507511516517516513512507509513512508508510508508509510513512513516521511508510510508513513511508512511512511516519516515515516514510510512512511513510510508510510514512513513510512512510514513512512513512512510517508509510510512512511510509518516517516515511513509507506508506508512511513513511511511512515517512513513515513513512510510509504508513515513512513516514511511510511510512514515513509509513508506510513511513519515515510510512515514513513513511513509506510510510510514519517512513508509510515513511511508511514514514514515515512512512515516512514512508511510509509511511514512514512511513512510512518515513514511509509505504507510511515512512515513514516515513513512511510511511512513510512513511506505510510514518515512513512507511511511512515518510507513513512513508508510514516514510511512517513507510520515510510509510510510512513515515514512511510510510512510511508511513515514512509508510512511512512512511514516512517510505510510510509511516519508504507512512512514515517517514515511509507514513517515514513516511508509506512512508508519518510509513511507504507514511511511516515512515514514513509511514511512512511514513514515512507508511510511510508511511510511516519518512512514518515507506512511513513515515514514509509508509511511512515514508509512512515516508510510511512511512515515515518516510510511515513513514512509506508511512514515514511513510509508512512516518517512510513512512514512508504507513518515510507502505511513515516518517513512513513513509508509511511513509510510508508512519515513517513510514516513508509510518517515510512511507505514514514515514514512513512511510511514516512511514511508505509512511512513514512511510515513509511510511513512513513514516513512515512512511514513507506506508513513517520518510503507511513513514513510507509509512514515515512512513514514512511510510507507509511514514517522511512511514513513512509507511510511513511512512512514514513513511510511511509510510509511512515515515514512511505503511515515517521518511512510510512509514512508511508508507509513515515517515514515513508512514508505508507510511510515516508508511516515517514521518514511511513512508514515516508505508512516509507510513515513512513510505504503508515517515516520518516513509507507512515521515512514510510507504505512513517519514511509512512514515513512512512511512513515511512515512509509510508510511511513511512513512511513509514514512515514514512523514507510518512510511515515506506502508519517507509510513515515510507507510512518518514515519515508507508512513512511511511512508508511510513514510510516519511510513514512511511513515513513516511511512512511509508509510513518514505508510510511518519515514513511511510510510510512514512510507510513515521514512515516516516517516511508510503504509514514511511508511520514514510511512514515515512517517511505506511515511514515515508504505507507509514515513514513513514512513513511512511510512511513515511511513514513508508512514511513516517513510509508508511512515512510514513515513512512509507508516520518515511515516509503504508514509508511511507513516518517516515516512510503499507512515517516523524514514513506500504507508508513515515511514516520515509509509509509511510515515513512516511509510513515512516515513514509508511510514511512509509512512515515513513513511511512514513513513512509508509511513517518514509511509510510515515513508510512513513513511510509509510517516515513513510512514508506507507512511513512520517516515519515507504508511513512514513510506511510514512513510519510507512513508511513515514512509513511509508511514518516516510515515510511512511513512512514512508506511516512515511506506510513515514512516516517514510511514513510511513512511508505509511511511514513515511511510513511512515516514510509511513515512514511508509510511510510512511513513513516514507511516515509505512514514514512513511513513511511509512510508512509514517515511512516519512512511510506507500505509513526515514518514509508511512513508507508511511515516517513512512513515516508506510510513514512513515513512512511511512514515517514514514510511511510512514513512512514510510511517516511510512515511513516514512511508508504507511513510515511512512514509505505508513516519519510513524512511508507508510516511510511514514512513512516513510516514513512507505510515513515514508511511513512510508511513511512512514515513513508507510511515516510508512512512514516512508511510509514516518515512510509512515515513510510515515511514513512510510505507510509511511517516513519515512510509514510508509511517520518516512510509510510514510510510511511510512514514512509510511512510513512508509515515513513515513513512507508512514517515511510513515513515511512509510512511509510510512514514522516514513510513509511510512510509511508512512517523516510509511513510511509510511510511514518518512509511514512512514512508508508508508509516515512511514512513508511515515511513515510513513515510509511512510509512511515513513513512511514511510513512513513512515514514512513512512513510507510515513513509501504507517522515512511509508510507508513517515511509515512509511516512511512511513513512515514515514513513511512511513512512510512517514510510511510509510510511514514512511516518516516509504512513511511512517518511508507511510509511516517517510511509508507509511511510512516513513514511513508515514515512511507512511511512513511516518515510513509512512510509514514512512510510510510510512511511513512510510509512512512514513509508515515511515515511512514512511508508513512511510520515512511511511512513513513510507512516518519513519514511508506506507512514513515513515511511511509512512515510510515514512510513512514512511510511511510513512511511512514514513512510513512510512511515513510511514515511513512514513508505509512511515514512510510511512513518514513510512513512509510510512512511517518519513510513511508507512511510511513514512511512512512511512512512514516516513512512509505510506510514513512517516514514511510513512511508507508514513511517515514514511513511510512513511506508513516515516517520514512512512510511510508515515510509510513514513512513511508509509510515515513514515512511510510511510511512512517511510511506506508516512515514515515514513513515513510509512515512508509512509515513510512514515513511511510512515515512510510511511513510507509516511512511513517518515516510508506505509509512516515508509516518515515513511512515513511511509510509510510510511512512515513513514516516514510508508510508511513511508511513514511512516522518512510511512510508518515510512511512512509512512511511513510512513514510511511510511511508510510513510512514514513513510512512512513511516508507510512514513513515513512513513515516512511510511511508510511513513511512516515514509518511512513514513512508509508508507510515514515515514515512515511511513511509510509511507510511514510512515514515513511508508515512513518519513505511519516511510510509510508509513514515514513515512512512511510511510510513514513513513512510511512511511510513511512512512512512512510511513515511512512515512513512513511512512512511512511510510513517516513513510513509508511514511508512514513513516514511512514512512507508514515514515514510506509511514515515509511506508510514515516515511512511509511512514515514512506511511508512514515515512510510517511510512516516514513507503509513509511515516519511509510512512511513511509511512511511513513512513511511511510511512514513513512512509512511512511512511510512511511513510516513511504510516517517510510514515513513515514511510511511512514510508508512511513511514514510511510510514513511515514516513512510506506509512513518513508515514514516515512514507508512516519516513512513512512512506507510513509505509512516515508512515518515513515512510513510512510512509505507510510506511516517514512513516513511512511513512508513519517513511512511511508508512513511511513513511514512515513513512511507508510513515515519517515513513511507506507511510510505511518519517515518516510508509511511512507508511512505510513513513514514517513513513511511514512513512512512515513512512512511509510509503511518514510515515517515516514514512508508512512511510512513510509508510509509510510513512513513512513513515516515512510510513509512513513514513515512514509510512514512513513511508505510508512512512513515516518517515509507510512510511513512512514514516517515515510506509509505503510515513512513515510510511510511515512512516512510514515513512512513514510511510509513516512512510506512514512510511510511513511513508510511514511509515511514515510514516515514512515514511509513513509513511508508507508512510518520514515516512512510505509517515513514509505511508510512515516515515513513510505507511514511512515511513517513517512515512510511514511511508510510512511510511512515513512513511512511511510511511513512518514511510510511513514514514514513514512513512507509505515519513516516520516511503506507509510512512512511510513517513511512509509507508510516516514511515513511512515516509513515515512512514509510510512508506512511512512517518513510509512515515512518514509507510511510509508513513511514512513514516515512513510511511508505506507511510512514521520517513515512516509507505507507507511512512514516516510509511513515514513514513515512509507511510508505510511515514512515515512510513515512512512510509513513513512512510509511508510513512513515511510512510512519517512513512510508509512517511510509510513514513512512512512511510511511513512517512515515511509511514515506504505512513512514516513511508512510513513512515515514513510511512509512517513512519515517512507507512513511512514515511502496505509508512519519516511512510513514518518515508511508510509510511512512515515512511511509511511511511508511508506511508514513512516517521520514508510508511513521514511511507510510508512511512513510512515514513512509514516514515515513511510510504500507511511512514520522516512508509511507511513520517514512514513512510513515518512507506508509510511510514514515515514510511512511513512509511509510511513512517515513511511514513509508509511514513515512515516510517513511511514511509511510515516511508511512514514512510507506507509518515512515516524516508509504506513512509509514514508509510514513513516514512510509508508512515516515512509507508509511512516515511515519518516507509511510509511515514515517518518517506506510507508510508509511515513511509507512514512511511512515519517513512512511511508507513514507508510510515511512512514520517510509507508510513512518517512513510508513513514515513514516512510507511508508512515515512512507511512510512511512512510508511511512512514515512512513512511510513511509507509521523513509507509511521519511512513511510512511512509508511508509513515511512513514510506507510515516514515513513513512513512511510512516515512512510510512514518519514504501500503512521521517512510512511515517517515513510511510512512513515513507508510514515508508508505509512512513512512513514513513511509513510512508512515513511511506506511514516516511513516519510511511510511507511513512513512513509512514512509512510514513514513513515512511510510513514512513514514513511511510513512511513513513514512512511512514513508506511513515519516512513508511515510508508509508511512519515513512511511510507509511511515516513513510513513512511511513515514515515515514517514510508509511510502503511515511510513514514515512508506510512514515512508509508511513514518515514508505509510509514517515515510510514516519515513510507508508508511513514521514513514512509508504512509513515512514517515512511510509511512512513510512513510510513515518519515513515511510511509510508510504504511515515512511515515516515511508514514515517520511509511509506506507510507508511515513513517509511515517511510515516513509507511513513514511512511511509512516513510513515514514515512509512515512510509516513514512505511512512514519519507509511508508510509511514514513515513511511509512512511509516519515514512513516512513512508507509509512512510509512508512513511511513513512509508509510509510512514516514515516514508509510510512513513517511512517517511508511511511516517519515511511508510509509511509508506512509510515519510511510512511510511517518512512512508507508514515515515514517515510510508509512516514513513508507510512512518517511508512516515511511515508511512512509509511516516516515510508505506510512513512513513516514513513513513514510512515514515510508513514514513511508509510510508510513512513514519515510508509510509511511515516516512512509512512511512510508512514514520513509507507510517518510512512509507510506510514514514515519519512507508508508509515516513511510511510512511511512513515513511517515514511512511512511511511512511510516516513510510511510508511514509512511513510513516517511512511510510513515509507512512511508510514509508511513515516515520521517513512510504505508509510510513513514514511509512513511508511515511508510518518513511512513514518514512516513509514513513511510508511514512510505504511515516520518515513511509511509508515516511511515515512507512508514513509509505511514513513512514515511509507508511510511511515515511509512513518516515514513510511513514514513510510508507509510512515516516514514518512508508511510515515512512514509508508513510513515512512515513515512511511507507508510518516513512515512512515511512515512512510509511514509510511511509510511513517515513513512513511511509513516521513508512514509509506512515515514512511510509510508509510512518516512511512512513512512510511510511516516509514517513514511512511509511512511512513516507499506516519515516516512510509511513511511512510514515513507509514515511507508510511516516507505511511514516515509512511514519518511509508510512513512512511514514512511509509512517518507510512511515510507509513512510512509512512517516510506507512513518518510514514510509508509514510513511512515515514511511513514514511510517515506505513514513512511511512513518517507510514512507511512511509514514514515516510508509510511509512518513512515517515510511509514515511509512510511512512511515511508510510512515519519517516516508507509510509510512513512513515518515510508512512512511513512515511510516519513508513511504511507508515515513512513513513516513508508511512513518517512507503511513511511510509512517515510508512511516519513511512513512511511512517513506509511512512512512516515514510512513513513513511510511511513514507510511514512512511511513513515512512513513512513512513516511512512511511511511510510506509510508512518514513516510509512513512513509508507509509512512517515515516514511507506508508511517519519520519513508510511510509508509517513511512515513515512509511509503507511514513513512512511510512512515513511511507510512515513516513510510515511511515515514515514511507509509512513513516516514515513515508505506510511511509506508511516520513514511514519515514511507506512515519513512511510503507510512511510515514513512516515514509510512510509510513513508507511515514511512522515514518515511512512509507512514514512514514512507506511512510511509511515514513511508516516513511514510512513509509508510512510512508507509510512512515516516513513520513506503511519511509511513515518515518514512510513512514515513514509509509508507507511514515511510510512511512513513512510513516516512512506511509513515515514510507506511513516520519514509512519510504510510513511507511513515513513508510511512514515515517515515515511510508507510513511511511512511514514515515513511511511509507511510512512509520518512514516519517511511505506508511513512510507511514514512518512507506509516514510510512512506508508515516514514513510511512514511508513514512511512512509509511513509512515519515515512514514512512511511511514518511510508510510516525517512511511510513513512510505506510513511509509510511512511517514512513508508512513514513516515512515512511510510510511513513514510511512512512514515510508508512513515513512509510516512511512513513514508509515515510508508510512518514512515512508508505508515515520521515511512512510512510511511512508511511511512513514513511509511511512512509508509517512509516517516514511510510513513514519515509507505512511511511511510512513515512516515512512509509510511511511515512514512506504508512518522525516508503500504512516519516513514513508507511511515516508503505512512513518529516504507511516517513513510511508509511507511508504508514518517517520519514509513515513514512510511513510510511509509510510510510510514514513512514513513510508511512517522515511512510512512509512514509505511513509510511511515521515506508510513513511510509514515511507502506510511516519519515515515511514515511513514515508504507514511512514515513518511508513511511514511513511510509512511511511511511512510509513517517516515513512514513509510514512513513513512512512506508510510510512518517514512509510509509512514508511514508508513517521510509513515510509514512512515516515514512508505509515515511505505510508515514515513515515516514515515515511505508511508513513510509506512512510512514512508511510514512513517519517513510512510511511513510511515515513510508506509513515513513513510510512514513514511511511511512510510517515518515509511511511511510510511509509510509511512515515512513512512509507507510511510511515516515514511511511515518512512511508507508515512509508512513514515517513515514511505508512512513512511511516518519526519512513508507511509509508511510510512512513514509513513512510506508509511514513513510510510510513514515515515515510508512512511510510514511515516508510508510510510515516513512512515512510508508506509515516515516516511510511512511514516516509513521515515511504505507511511511516514513513511509507510507513515510510513519518515515514515513511511510505508512513510510509511510505505510515521520519512511511511511514510509510513509508509510512514511513512515514513514513513511507505510512512515512511509512516515507513518518514513509511510508509508509510514517515515515515508510518523512507508509512514511506505507516520517514515513508509513513508511512511510512510507510514515515509512513510511513515517512511513508508509508515512511515515513521515511512513512511514513505508509509508511516517513512511511512515515515513507510512514516515512508508507509511511511511509512513510508512516514518520514518513506510517516510512509511509508513519512505508509512510510513511511514515512512512511514516514516515516514512511512510510509508511512512511508511513514515518515510509512512510508505509512512512513511512513515509513514510509515517519510508517515511508509512513516514511514515513511511512509505505511514513512511510505510514512511514519516513515515511510508513510508506511515520514511512508507511518516514515510512511507510511514515512510515513509507508511513508507512516516514515511508508512510514514516519513511512511514511511511511509513511511512508508510513515515514512517515511512512510511511511512515512509510513513512509512510508512515527519512515503506508510512515513511507510512513512513517513512515515512508511512512508508510510505506506512517517516512513514514516520519511515514506503506507511515517515510511514515514510509508510513514511511513512510512511512515516511506508511510510506508512513515519521516514515508504502504512518519518515513512517515509508515516510510508508511510510516514513517512511511512513509508512513513510507512513512515515512504508509514513511512509509512509509507513516517519519519518513506502505511516513509512513511511507513515514515513511507513519517510505506508511511512512513518519514507502506518519514513513510510513509506509513515513513513512513520518511513516510513514517511508508511515511510507505505510510512512519522521518515513513512511507506508506510512513513513513509510515515512511508507514516516512513513514514511513515509508511511508504508508513514514512511513511513514513511514516510509511511513513516515515513517509507509512515512512515511511511514515512511508508510516514514519518512506503505511509511512512512510511512516515511513511511512511512510514515516512511516513508508509510512511515515515515514516516513511512515510513512511503501506515515514511512515515511511513511513512513512512512517519513508507506506507511515511512515512509514519515511506506511512511513513512514514513515515511510505509513512513513515510511512514513512513513510509509512511512512510509510513513511516519517511507507511511512510512508513516515515511508511512513514513510514517513506506506512518515519523516511504504507510508511513514515516508515515513511513517515509508509512507507511510506504513515514516519513515515515513509510512515516513513515517515510503504511514516509508510513507502503508512517518519518513516512507507507510515514506512519512511509507509516513512515518513510512517521515512513509510507508509508505511515515512516514510514516514510511514510508511515515512510508504512513508511514519519517513512509505511519517513512513510509510508508512519516509508511513518514510511513515513508506510513515513515513514513516511510513515514511512513507512516515508506513508509508508515520509507508512510508515512515512512508511517513512513512512511511512513516512511514511511512509512512512512514513512512514513512515513508509511505510511511515514510515519519513510509510511508507508518513513518512511510511510510510511510512511516519515512511513513507508508511512511508515519515507507511515516515518514509504509512512516511510512509509510514517512514519515510511510507507514516514516513511512509509507504509513515518513513512512513514508505510511512509510516519518520526520514505500507516517514514511508508507504509514517512516516515512513512513515510508511513510507508512508509513513513514513507512515510509508514516514512511517512507510513517515515513506508510512515513515513514514511508510511511510508511511512510511513513516516512508513515511512511510512511512514513513513516514509510511511511513516515516515513512515512509506505505505502504515519513512517521521514515513509508512513514512512513510509508507511514512510515520512511511512508503509511515519519515511510513513512515512511510510512513509510508509514519515511512511510512510512513513515512512509514512513519514511513510504504508513512509510510508508514515516517514512511516515513514513519516510508507503501508509508520518513511510512519516516513511508512513508509512511513515516514516513507508507508508512511509506512512513521517512513512512512510508512513512511509513513508510514517518520513513512510510514513511513515513512510506507509511515514511511510510510506502507517523513513514514509509512511515514514513512515511515515516511513509512510510504508515515514513517514513508503507512510511515516513514516517514514514508510511510504506509511515516517517510508511510513512515515514516517517513507505506510515507504507516520515514514515504505507508511513521517512511511512514514514509508507512519521515515512507508515511512515512514512509511505509508513514507508511512508511515513518518518514511510509511509507509514509513516520516505505507510515517513512514516511509507512515518513511512514513521514510510505503507514523520519515511510512505509509510511511510512514513513516514508509508506511513510512513512515511513515519516513508508508510503504510519522519512507510507501509513513520516519518516517508504504511512511511511514513513516520516512511511505506510511515512513519513510506505511508512514515515514510510507511509514516513515513511514516520514511505507512515513510509509508511509509509513514512509511514516514515518512507515504505510513512508511517516516518518518519511504503505509512513513516516507508509508512519525515509507510515515511516513507505505504512515517518513517513511506512511512510510509511513515511512510511511513515515511513511514512514513512507508511515508509509510512515513513513507511513508508520519509508510512517517513514510512512511510510513513507506505510515519515516524520513508505501502510513517515511509508509511511509508511513516517518511511508511515520522519507508507512512514515510509510512513509508514510508513515516515518506507508511512509504505508517520516515515514512512511513511516518510504504509512511519522514509512515511508510511510514514511509513517514507502508515515517516509510510510509511514514513517515509504500505511515516518518513515511506507512508511510511516517515514514512511511511510511511516519512508512511511505504509515513515514513513508507512510512514515518516512514512513510506505511515513518513507509516520515511513509504512510508509511512513513512511512511518517516513512507507513518517510513518511516509511511508504505510507510516521518517515516513513511507512512511508507507510509513516517508508511514514511512511513516517508511510512513510521515511511512516518516511506503508512511508507512513511511516519517516517511507503505512517512511512516510507513510511517514512511513508508507510512511510512514514513514513514516516510510506511511514509512513515512511509511511510510511511513514513516513515513508509510514513514512512515518512512507508510507512518512506520534521506507513508512512511510508507512512512513508507506512513515515518518507505510512515514512511509506510514514516513506510511508512512512512508508511512513513511512518513512513516514514510512512512513508507509512518518518515512511509508508515505502512518518512516517508506507512516514515513511513514514513508507510510508510517518512508508510512513515514515510511512511515512511509511510511518513510511512518516513511512516508506511513513512511514512510515513513509507511512513513514512511511509513519516510510509507509512514513517515515515513511509510513511513517514512513514508507512514510508509513507507510511505509524525528519513509507505508512517514513507511506509510509511516512508511513519515512513515515512508508509511509510510512512510511515515515513513514514511508515519515513511509510511508512512516514513511505507507511511511512511512512511510511508506505508517517513518513515517514514512511514516515518516512515509505508510506512512513513509509512514511512513514513514519515511509511510506506512515513514508508508507511512513513513516517514513515511508511513512511512512511506504504510515516517513515514512508506511514511511514514513516510511508507507517523521514513509511519516509511515512514516512510515518509504504500507507508511512512515515516513514511514517523515505512515514511504511513512512511513509509510510511514514515511512512510509507511511513514513512519513507508511513512514516515513515514511513513509506513513508509513514513511507510515516513508509513515514511513512508511511512521520509508512517519511509510507509510511513511513508512510512512515516509515514512511511510511511513515515512509510512512513512513510512512510512515513511510509513517518515514512509510511512510510515515511506506510512515514510512511513512511514509510513512513509507513512513508506509510512516525518512515523513510508507507504510511513517518515511510510507507513524515510510509512510510515508507508512513512514514514517517505504511512515518510509513513512512515515510508516516513512519515511509510512514512509511514513514514512507505508509512513513511512515517518519519513507508509505503512513512512515519515507511505510516515513511510507508512516517512508516512518516516510506508508506509510512514513512509509512514513512510512513514511511512512517514516508511516509513515511510509511515514515515513514513513510510509512511512514515517512514515506506510510508511507517516512515515515512505504507510514514515513511514515511515516511513510509515513516513508511514512505508515513515513518513511514515509505508510505508511511514514517515510506507515515514517512510511515512510511512513512513513513511511511510511514511512513513512507508511515513512515515515513510510509512511514515512516512512515511511508504503506512513513516513516516513512509508512518515512512513512514509509518519514506510510511509513513505511512516518515511506511512509507507514512513515515514517515512509510509504502508515517513515515516519508506512518514517519515510515514512515508509504504507508512513512514519514509510510508512515518511506516521515514513510507508507507511514515510508507508514514513519511510513515516512515511510508508511509513515511515513522516508508508511510510510509513515517523516518514506502502503506516519512513516516515517510503505512513517516511513512512507510507510512516516516518516517516512507509515516512508504508506507507507511513515516521512506510515512511514520520512513511508510509513510512514511514510509512513510505512515517516512511511511510508509513516511511515513514513514521515506510515511511513510508506509512509511508512515518522517508504508511510511512513511512518522518514513510511509510509508509507512507503513524522520513513515513510508509513515511507511513511512515512505503507511512515519512510513512507512517516511506509508507509512515515513515515517512511518515511510512512509506507511510515513513513512514515519511508511516512513512512510508512513508510510511506507510513511512516520519511509512513510512512513515517514514511507505509515519519511508512507507514515514514513513511511514511512509512510512513512509508510512511510511513514513512511512513514512512512513512519519518515501498505513515516516519517516506502509514511511515524516515511512508510512511509510517511512515514507503505510515517515513513508504505513517515513517511512511512512514516517514511510512511509510510512514511513517519513511511509508510511514521521512508508507506503511513517516511513517517513509504498507515519526513513514510510515513512512512513511510513505506505512512517517514510513513512513514511511508512516512515511511508508510512511506510522519512505511518519513512508512509511518511510511510510509508508510522524519515513513514512510508510509511508512511511514513511509506507507509515516515511511513513513511511510510513515509509508516516521522512512516519513506507510511509513510508509515519518511513513514513506499498508519519511512511516513523522516514511505507509510508510513511512512514516512511511510511516517510508504505511508507509510510515519524520515513511508511512505510511514510512511512516513510512512511512507510510512512515511508507512513511516515516515512512515513513513509510512510511512515518521508507507511511511509510512511510514518519515512512510507508513516515510512514514511510507509508510509512510513515516513513511511506508510514514514512514518516510508507513518522514510509506508513518517519517513507506506509510513514511509510510510508511513521517516522517511513513506499508509510517518510513513512509509512514514514511513511511511512511513516517516514511509513509505509510514519516513513510508508513516512508510508508509515513515510508507510518520515511515512514508510513513512513514514514512508505511512513512514514514509508508514504509509513512513517515518512508504500505517527519513514511510513510513513512512511510519517511508509510513512509504505510512515518519516520521513509506507509509512513514515512508513513511512513511510508508511510511510512515513515515514517514513507511516511511509514513515513511508508511512512512514511512514511512508509512513511512513515512515516514511511513511516512512512515512507507510511516515511511511513511508506503509514520518515517511510508507511513513514514516515509507509517512511512506507513505513515512513512512515516514512513509509507514513513513517515511506512516514513511513508508509509512517519519514509507508514513511511511512515518513508509506508512513512513513515513510508508507512513512514517517511511513513515517517508504503508510511519530526516502500508508507514510514521521518507503506508511512513518514512511508507504504508514511510513518518515511508507512513519515513512512514514509508511504508516518515512514513512511511508507511511511518517514508514513507509509508510516521511505509512512515511512512515518519512503509516511511511513515509512513508510511511511510511511512512511515513512508509509507509515521518519515510508508507513515512512509512510510512513519512508510518521513513513513506506511510511510511516524520517505505509511517515512515513512513511510507505509511511518519513511512510514511515518517511512515510506504507507512510512517510508508511512516526525519512511511504510511509508516518511510508506507512516518516513511509503504511512515517516513510507509515514511512512512511511513515510512515513518513508513512511511508511510511512512514513512510513515515511511513512510512510510509512511515519515514517514512510510511510511507514512512511507511513516520511510508504510512509510519520515510511511511511513512512514513513510511517521513500504510510507506508512516512517515512506506510511513512515516514516515515511519521514509511514508505511514511514511513512510506508512512508510515520516511512515511507504512513510512513514512510511510509512512514514516516516517508508512511512509508508511511511515515514512511509506505508513513511512514513516515508508515515516525515508512510508512513514509502510513512510512513506510512517527522510509507506508514508508511513509516519517508502506512519515505507512511515515512509513513510511512518516512512512512512515511512517511504507510515515511512515518518518509508504510515514510512518516512513513511513517518509508505508514509507508509511510513515515512509505508516525521518512509510508506510513520523521511508507503509513509507510508506506510515524522522511510509512505505510520518517513510511513511503504510510511511514513511512517516516517517508508511514512511508508508505506514518519514512511509511512513514513511511515518515514505507511512512511515515513514511513517513516519508503508509513513512519517513511508514516510506510510508502507515514513516512515518514521524519508501509507508510510512511516515510505508513508510512513511511513514516517513512514511514512510512513511511509508510516512513513516515509512511511508508508508512515518