510511512510512511514516512515513511510511511513516510512512511509513510511513513514510514515514515513512507508509511514510505509515515515513508514516512511512508511512510513515511507509512516516517518518514513509510512511510511511509508510508511512512514511512514512513511509513514513512512516515513510511510511511514511511517515510510512512515509505507512512512515515514513511514516514511513515514515510511513507504509513509509512515514513511516513513509511512514514514512511509510510513507507508512507510512511516523520510508515518512518515511506509512510511512512515513513518513510508515508509509506508508510512511511515515513512512514514512512511509509512514511511512512517520516515511511514514512511512511508509509512510511512513514514513511513513511511509511510512514513515510507512510512517513512512515512512513516512512513507505509510513512516516517515513510511508513520516511508508504504514518512508509512503511521524513511513514513508510514513510507513516517515515516518515508497504506512513512515516508507514518509509512514512511511514508512512514513512512507510511511514513515512514514514513514513512512514511512510510509512509511517513511511510508512509509511513513511511513507509522528514508504505506511513513514512512512514513511510512511509513512509512512510513510506512515518513515511518516514512508510510512511511513515518512511511515510503509507511517518513511510507512512512511511510511511508510515514514512514510511517514513514512505508514514511516517514512508512513512508508512513511511510509511512514513515514510512511511508512511515515511511514515513507508514513511509512515514517516512510512507510511510507511512511513511515516513513515513508511509507507515511519517511511513515511515513510505500508520519511507507506512515515515515513512513511508507512513512512514512510509512511511511512514508510512515516512510520522514516516514508507510511504501508513515515513515512513513512512511510507506514516514514515511513511509511514513512515513512511511511510514511509505513514514512508509517518513509510511509513511515510509515514512512513514511508510513515512512510512511511513512511517516515510508510512514512511512511512515513512508512518513514509503509513515517519517511511505505507504503503508515520517518512506516518515514513510513511509510513512510510512519517514507508511513512513513510511512515508509507515518514514513511511516515514508510510501512515516512508509510508512518516514514513514515515512513511512511512512512510512509511505508511511512513513511511516513508510511513515513513511512513511512507511515514514515513514515508502508511507509512519519512510513517514510508511512511510513512512509511513512511508511508505509519518524519515512512507506504508506516515510511504512517519515514513515512513509511514513512513511509509512511513514513514513512512512512511506509507511514513513512508509506512520523519518509509510508505508510510507511512513516513508512510513514514514513513515511514511513516512512505498507513512506512518517519515515517512511510511509516513511510511507512515513516515509506510511509502506515516515515513514514510511508510513511511512512510511515515515524518513510511511510503506511510511511511511512510513515514513511512510511511511513512513511511513513512513510511512510510511513514513513511514514515513513506507515516511515511509511508511513513512509514513515514513508510512513511508512512508515515513512512511510510516518511512512513514512512511510510508510510506513517516508512512511512516517513510508511512512510511512513513512512512508508512516516512506505516518516512507511512511515511511509513512511509510511514511511510513515515515512512512511507508516516506509515516515514512509509504513519520511510509512510512513513514512507508508508508512515516512510515514510512512514516515509502507511510512513512512511513514512513511509515517511509510513513512515518511508515512505503516519511511508513514511513513510509507512514513515508511511509508505509513516515513513512512513513514515511510509511514508513512513513513516514513513513508507507513513508506516514515521515513509508511513510509511513508510511510511513517515511508507507511515515518518517511511510511510511510509509510510512511515515515512510512512511516513512510510509513514515516515511512511510507502503510521515513513515512513509511514514513513510512509504510513516514513508511510519519515512511515511513513509511511510512508511515512512512510512514513511513511509511511518515514516513513510510504507514516511511511506510510512512514515512514510507509507509511512514514513513510511514512511515516515511506510506511516513512516511510514514512510515515514514515512512509508508511511510508510515510511514510510513510508514516515509506513513513520516516505504511513512513513510517519516512506511511507507510512511512512515515511515514513513513511509508512512510510516518513511512512510508507508512511513511511513515514514513512513515515516509511506509513514510508510510512512511511512512511511513512510511512514517519512513510510511512515515511511509507508512513518515516514510507513513512508515513514514511509507510510509514512510512514515512514511508519511505508508513512511511518515512510508512512511514514513514512510511510511510511516514511510513514514512513512513511512510511512511511508509511512514512515514513512510500501509518524519520511505507504509512515513515518517513511508514512511510512513510507509510510513517509505512515510511516513518516512510510513510508511510511510511519524521516513510508503508507512513514514512512512510507505508512514514514517522518514508507510511511510510511511510508512511512513513511516515509511512514514513511512507507510514516513515514519515513516513515515510511508505497504510508507518519519514515511508511513509513513510508508514518518514511514508507505509514513511513512514511507516512511512512518512511512513513514514511513512511513511511511512512513511511512515512508508514516516509513516509504508505502513515514512512515519514510512513517515515510515515506507510509505510519523515511508512515515513511511507501501511510512514513514516511507510515517516514514515515511513511511510508511515514511512513513514513511512511510513512512512511510509510511511514510514514508508509511512506513514520516513513511510508509512508514520523515515514510509509502504511518513507510513511509511512508515518515511508510512508508511513513511511512516516513510508512514514511511517516513513513511504504507511515515510512512515510510517516516512513514514510511511511512512510506510512513511508514514515513511512512512511513516510512511509508509513514511508512516519513509508513509507510512513518514511512510511511511515508512512512517522513508507508511512504509515513507508515518515513514510511509507514514514510512511514505512516514512509511513511516511515514512512511510512510509510514507510515513514513513511513514511511510513510510511515514513515513511512514509509516507514516515511512516511505510513515513508508509509513509513513512515515511508509511508510511516515508512519518514510511509507504506511513513512513513513513514514512514515515513511511512512511511510509510510510511513514517514514512512512509509510511511512509509511516517517514513514513514504506514510504509515515512511513513515515519520511513515512508510508511509509512510511509513511509513512515515515512513512511511512512511510511512509512516514513511513511511506508513515511512514515507510512515513516512508505512511510513515512514513508505512513510511513512512508510519520513511509514515517508511516514511509510512508512512508510514514514516511508514515517515514514510510511508509509512510512512513516510510511515512512515510507512512515513509511511508509510512512512513514512513514512510511513513513510512512512512513512513512512510511511511509511514516516512514514512510510511512512510516509511517513512504503508513514504508521521510512517513508508509514514518518513516513516510507512513510511514512508510511502500511519521515511510509512513512515512511511510513512510511513513512512510510511511512511513514515515515511511515513508512517513513511512515516512510510510507505506508510512516511511510511511511518517516514510511510507507515513513516520512510515507502510515515512513512512507504512513512518513515513512508505515516509509512513509509508510511513512510511511509510518521515511510509510511511511512514513512512514516514511510508510511509511515514514512512509512513516516518514511511509508508506505509511510512514515512514517513511504512515510511513515513509507511514512512510511514519518511509508513519519516504505506507511515516508512513514512511508509511515511509512514511510512517514515514512512513513512511512514516510513512512509511512512513512510511511512513516515515514514508510510509509514517509504510510514515515512514512512512515512514512513508504507513509507508513515513518517515511512513511514514510504507518523509503515516510511511513512515512512509508512512510511516517516514513514510504509512512513511512510509509510511509512512510514509512515519519516516512512511507508510511509508507511513512512512512510513518519514512513510512512515509505509508511513512515512511511511515515515513510510514516508509513514518513513508511509510516515511513508507513513511511514509508508513514511512515512513512511515519510509505509511512512512515512512512511511509515515510511512513514513511512511513513511510508509506508513526524516513513511510504505507507510515515513513511509514517513512512510511510516514510515511510510508507513513509512512512517518515513513512512511512507507506510512514515516515509514521516512512512506510512510510510507508514513515515518513513512510510511513512510511510509510509510511512514512514514512511512510509512512516515511508514507509511513514513515513509512514509511513515513515511512518517513511508509510508507513512517513508512511511513514513512513508510515515508511511516514512512511509513513512512512513508511514507509514514513518514515515513511508507512511508507509510513512512514514513514515512514515513512512512513513511508508511511510511515513515514512514515510511507511508507507508513515518519511518514508510514507506516520516511509511513510504513513504510513511515517523514505511511510503507513513512510512510511511518515514513515514513512515513511509503503508514515513512512514512512512516512511511514511509517515508512512513512512510511508514512510513512511509511512511510509509508513514516514515515516515511513515512510511514514510512511511511513507509506510513512515513517524513513507507496506514513511511515512512512513511510513510511511516522517513510507510511510510510516516512513515512508511513513514512510507510511510512512512515516515511511510509510517512508512514513510509509509511515516511510512511512513514521509515513505504510511514512514519514514515510510509512510510514519514511511510512507508508510513512514516512512515513519515512512512507506505507510513511508510518518517511511507510508513516512511512514510517514512513511511510514513514514512511512508509511510507509514513515512513517518512507515512509514512511508510508510510513511511511514511510510509516516510512512511511514516516516508509511512508507513516515512509508506509511510509519524518513516519516511508514514511511511511510508509508510508511512513513512513513514515510509513515516512514510509513513513513511515515508503513514512508512513512511511510504508519519516511514512510508511508505508518524510508523519504504507508509508511516515514512515514508509512516515514512511510511514515513510510511517515505505505512518517512512512511514511509512511512512511511513514514513510511513511511511512508515514512511511511512509511512512512511511519516514510505507511505511515513514516518506508519519511517523515506504506505504507519515511511515512508511510512511512514518519518516509512511513509508510512512513512510509510513515513513512511510509511512515513510513508512514515512510516519516510508511513510513511512512511512511510508512515513514513512511512514515515515512509508506504510514512513517517515510512513508507506505510520511510518520513516515515515518523521513502500508503495496510518513510514517515513516513513509510511510512514515512511513515513513517520512508508508510511513512512510510510515513511511512512512512516513512511511512514510508509508511511505513515515513515517515512515517516512515511510509509509509509507509511513519511513510512510509511514513515508501510517514515512513516512513513510512522520510508510512508504507505507514517515514514515513513512511512511510510511510511511513510514517514512516512514512510510509507510508508513513511513512512511511507513515515515515513513512509514514509515512508509511512513511513513514521530523517510510505505497491497504505512514514516516517513512516512510513517515514513509512514511510514515513515516516515513505505506513519518513509510511511505508518509509514517516512511512511511510512510510513511515513510511509508511509512516517516515510515514509507510516517516507507510513505508512512515520516515511510509512515516515511508507507511511511509515515514512512509509510508511510513515513511512530529520515514508502489492503514519513507510513514514514515513513513515513511514515515512514512512512513504511512507512516512513517511511513513511508512511509510517518516511513515513511511512506508509504508514518515511507515513518513517515513513511510511510510510508509520515515513511506508511511511512510510513521523519511512515507500499504508510508509511514516510514518514510509511515510512518518516513510519512505513518510510510510512512510509512516509508513514512512513514511512512514518513513508505509513514514511511513510516519517515513511510509507510511509511509512514511514517515510513513510510509508506515513511512513512515517513512511508507508509512518518519516509512513511512511512515512512510512509515522522517511502510499498505510507513515512507504513516516514513514518515514511510513513512513510513513509508511510514511511511516519516512511512511505505510515512513511511511513513518516518514511514511506504507510513513511512511513511511508513513511515518510511515517510510511513518514511510508510509511512512510512511506512520519514512523524518510508505502495502506512516516510504510514513516513512511513517516519516509512516514511512512510506509509512510513513512513507506511510513513513513516512514514511509510509510515512511511514519516512510510511511512508512515511512513512510513512512510516513513510508504508510515513512514516517513508511511515527523514509508511508498502504507513512523519515512513513506508514513510512515515515513508509510512513514512510511510515511512513512513512512518512515513513512511509511510510513511512511510509510514509511512516518516509507509515514514512508509507511511510512512515513511508512512513511515512513512512514513513513510511515513508509512516514511508509508508509520533532515507507508508497503508511510508516519511508514515517514509509513509509510515515512513515515514517511509508509511511510513517511513514504511519514512509513512512510505509510511511512516514513513513513516515516514512509507505508507510514512512515516521520515515511504502502511512516513510512513510512509505511514518517513517513511514510504513518501502508512524523524517513515520516511510507510503495503508511511514511512512511511514515513515514515512512511511512514515514515515516514510512508510511513512512509508513515510508511507509512514514512515515515517515515510500505515511513512514513512511512512512508511514521511509510516511511517518510503504510507508511511512513515517516512512512511510513513510510510513512512513513510510511516518514512513514511512513510511507509511510513517515518513510510511513511510512507510512512511512514516514512512511510510510508510512510511512511513512516518515512509507506504504512516515515513512516518515507507509515515512516517510510519516515512508514513513512513507506505510513526526522512510511499482489510515510515516515514514518516516514511513514513513514515511511510509513511513511510511512512515512514511512515512512512513515514514511507509507508510512518518512511512507507506510513512517515510516514514510513514515509510504512512511508513516515515513512513514514511509506509512515510508509512514517516513510513514516515515515516522524511508508503496494500508509514515516514514515513510510519521509509504508510508513516514514514515515512512508511511513511509512510513515515517516513507504511507509516518512511513508507507513515518519509516515513507511511512505507510515514512510516511508513514515513509508512514512510511508506507512513516519514515518516511509516519516523519515508503499501497500504505509513516518519514512513512515512512509512516517518509508519512509515517514513514511508508509512515515507508508512515517511512512515518513511512509509512517511510511514512510513512508508512514510510513511512514514511510510509511512513515514511512508513511509513513511515519518508515515514505498503512515517514514511510511514513510511514516516511512515512506506513513517525523515499500513508494500508510508512511513514516516515519518515516515514512511509511511511510510515515515512512512512510509510512512511514513512510513514513512511512510507512514512510513513510513512512510513510512511513511510511512513513515517514512513512513507511511504511517516516512509506508510510514513512512510513516515514517515507507508509513513517515516516508513513508507510509516517513519518512503504509511511511513512511512515515512511508510509511511514512512512512512514515514513511513514513513512512510512511513510511510513513515516511508508507512520520516513509507504507509507511511512513511510512509510522521519516511501504514512513514515515511511515511511512511510510509507509508508512516513520517516511515519517513513512510506500499506510511511512513514510512517518516513517514510504511512511513512512512512513512509511513511511511511512514512512512510506507511515524523516512512509510507503506511514518514514512512509508514515508514515515512511515508510515512510510513513514509510513511511511512514515513514513512513511509509508508515516515510510516518513515512511514513511512511510508511512511510512511513511512509512510511512513515513515513513513509510510511511511510511511511512514513513512512512511512513511508511512514515513512513514512513514512511513512512509510507509514511513514513512512512513513513514513512511512511512511511510511511511512512512512512512513514513512512511510511512512514512512512501508512511515513515515513512512511513513510509512511512514512514512514505512514514510510513517516513510510508512513516511512513513516515513512512512511511510509507512512510513512511512509513512511512512511514514515513511510511510512511512513514512514511512514513510513512513511512514512510510507507508510511509517521520506509513512524518517517515505507510512507507509513512512512513514512511513508513511512514512511509511513511515513512512510511513510514514513510513511512512513511511511513513512514512512511511510512512511513512511512512513512511512512513513511511509510511512510508511512513512511513514512512513512514511510511512513509513511511509511511511512513514512513513515514510511516516512515509511513512511513511511510512512512511512512513511511510513512513512510512511515512506511515513514515516514511513511511511504505508508508518527521516512512513512507508509513513513511514509508510513513513513512512514514515512513512512511511513515510510514517518519515514516512507510508502507508508509510510509511512513511508507508509510512511514516524522519511510511509509509510512512511513511511512509511513511512513512510511510513513514513513512516516514510511512512511513513513511511507508509510513515513515513515514512512514512515511512511509508510511512512512512513512513513512513512511513511512510510510508510511510512511514514515512513512512512513512513513512512512511513511514514514513515515514512515511513511512510509509508508509510509509510509508511510512514514513513511511515512512514513512512511511512512513512512514512513514512508511511513512510510513511514512514515512512511510509510511510512511512512512511512511514513514513512514515513514512510509512512511511513511511513513512512514511512513511512512513512511511510511513512512510511510511513513515512511512511513513514510511513512512514514513511513515513512515511511511512511512512514512513513513511512512512513511510512511512513512511512512510511513511512513518518512507510511515513510513512512512509509511511509511510513512512514512513513511512511512511511510513512511512514513513512515515514514512513513512513511512509508511512511510511510513515514514513515513514512511511512511511511511511513510512513512511511511511510510511512512512511512511512511510510513512513513513514514514513510512513513509510510512510511510513513512514512512511510511513514513512510510511513511513512513514515512512512514513511513512513512512510511513511511513513511511513512511511509511512510510512510511512513512512511512512513514511512511511512512512512510511512513513511512514514513514514514512510509511512514512513513512511512511512511512511513512511510509510512512511512512512513513513512512511514512513511511511512510514512513509511512512513513512513511510510513513512512511512513514514511510511511514512512513513512514512512514512511512512513513511511509511510513511512511511516515516514511512511511509513510511510511511510513514512511512512512513512513512512510512511511513510512513511511512512511512515514513513511512511512510508508510511512513513511513512511513512512512511511511513511511511510513511512513511514512513513511512513514513511511511509510510510512511512513512513514515515511512513511511511511509512511510512512512512513512514513513512512511512512512512510509512511512513513512514512511512512513512512511512510511513509511513512513513511515513515512512512511510511514513511509511512513510510509510512513512510510513515515513513513514511509508508509509513513517519514513514510508508511514512512511511511511510511509511515513515513515513514514512512506504512519518515513512512511514511512512511511513510512510510512513512511510511512510511511510513515512510511510513512513512513510513511511511513510512513512513514511514512512511510511512512510509513514514512508512512513513514514512514513512511510511510511512510510511511515514516512513512511511511512511511510512511513512510511512512514514512512512511511511511511512511513512514511513514513515512514514511512511511511510510511511511509513514513511509511513512512511511512510512512511512511509513511512514512514513512512512512513511513512512511512512511512511512513512513512514513515511512512512510512510512512511512513512513511513512512514512510511510512511512512513513512512512511512511513512512513512511512510512511512511511511512513512512513512512512511511512512512510511509514512512513512512511514513513513513513513513513513514511511510510512510510510511511511510512513513511511512514512514513514513511513512512512513512512511510512513511511511510512512512511513513512512512511513514513513512511512511511510511511513510511511512510511510517517515515518514512511510509510510510511511512510509510509511512509509512518519516513509513515515513511511511510511512512510510510511510508506508515516518521519509509512515514512511511512511512512511512512511511511512511510511509511511513514511513513512512511513512511511511512512512512511511511512512511511510512513515511515511513513512510512510510510512511512512510513513514512511511510511511514513512511513512514513514512514513513514513511510509511511509510511511511511511511512512514513515513510511511512510511512511513510511513512512512511513513514514512512512512513511511511511511511510511511512511512512510514512511511509513511510509511511514514517517513513511513513512511511511509511513513511512512512511512512513512512511511513509511510512511512512511510513512512511512508511512512512513514512514513512514514513513512511511511511511512511510511511511512511510512511512512513512511513513510512512512512513512513512511512512512513513512511511511512510512512512513513513513513512510510511514512512513511511511512513514512512515516512510513512511512511509512512510513512510512510513511512511511513512511513509513513513511511512514511511511512511510511512512512510511511512512513512510511513515513512512513515512511512511510510510512511512511510512512512513514512512511512512512511511512513511511511512510513513511512513512511512513512512513513511509511510510511512512513510512512514514513515513512512512512511512511512510511512512511512512513512512513512513514511511513513512511510513513513512512510512514511511511511512511512511511512512513511512514511512511511511513513511511513513513512508505507509512511512516515514512513515510507512513511511512513513513512511512512512511511513512513513513512511510513513512511511510511512513512511509512509512515512512512512510512512511512512512512513513512513513513513512512510511511511509510510509511511514512512512511512513512512512511514514512511512512511509512512513514514512511513510511509510513509512510511511513511512512511512513514513513512515514513512512510509511510511511512512513510511511511513512514513512515510512510513510512512510512512511512512513512514511513513512512514511513513512511510509512512513512512513513513512513512509512512513512512511512512512509511511513511511512514511511512513513513512512511511514512510511513514511513512511511511509512512511513513513514515513514513512513513512512512511512510510510512512511510510511508512511511512512512513514513510510512512512510512513513512514514512512513511513511513513513510512512512512511510510510512511513511513511512513513511512512512511513511511512510512512511513510512511511512511512511510511513513512512512512512512513512512513512513515513515513511511509512511509511512515513511513512513512513512511511512509514511514511512512512511511509512512515511512513514512511512511512510512513511511510509512512510513514514515514511511511511511513511509511512512514511512511512512513511512511514512512512515514511508510511512512511511514512513513512511511511512512514513512511511512512512513512513512511512511512511510511510510511511511512513513512512513515512513514514515512513511512510511508509511510512512511511513513512512512512511511512512513511511513510511513513512512513513514512513512512511511510511512512513513513514511512512511513513512511512513510512511513512514512508512512512513511512512512513512513512512512510511511510510510512511512512511512514513513511511510510512511512510512512509512514512514512512512513514511512513511512513513512512512511509511511512510513512513514511513511512512512512510512511510512512512512513513513513511513511509512511514512513511511508512511513512512514512514513513513512511512512513509511513512513511511513511513512512511512512512512513511513512512511512510512511511514513512512512513513513511512513513512512512511510510510510511510511511511512511512512511513513513512515511511512512513513511512511513511512510511512512512511511510509512512514512513512513512512512511511512511512510511513511513511513512512511512513514512514511512512511512514511511512513512512514512511511511510510511510513512512512511511511511511512511510512514514512513514513514512511511511511510510510510512511512515512510511512510512512513511514512510512512512510510511512513510511511514513513513513513512513513512512511511511511512514512511511512512514513513512513511513511511511510513512512511511511511512513512512512511512513514513514512510510511514513512511513510512513511512512511511512511512510511513516512512512512510512511512510511512512511513512511512511515513511512510514513512511511513513512512512512512512512514511510509512512511512514514513511512511511512512511511510511511510510511510513512513511511511514512514511511511511513512513512512512514513512513513514512512511512513512512512512510512514512513512512513513513512511512512511510511511514513511511513511510512513512513512512512512511512511513510511510510511512512513512512512514513513513512511512511511512510511512512514512512514511512513514512511512509511512512511511511511512512512512510512511512512515513511512513512512512513512512511512512512511512512513514514515511510513511511512512510509512509510510512512513514511513513512510510512514510512511511512515513514512511512511511512512513511512511510510511513512513513512511512512513516514513511513511511510511511512511512513512511513510510512511512514512514512512512512513513511511513511511512511512512512514512511510510509510511510511512512513512511512511511512514513514512512514511512515511511511509512510512511510511514511513512512512511512511513512511510511512512513512511514512516513513511513512512511512511511510508510513511513510512512513513514514512513513511511511512511510512512510512510512512515512511514512512511513513510511510511511513512513512514512512512511510511512511511511512511512510513513512513512511512512512516512512514513512512510511511508512512511512513512511512513513511511511513512512511510510511512513512512513515514513512514512512511512511510511510510510511509509511512512512514513513514513510513514512511510510511512512512514512515513513513513512513512513512513511511509512512513512512512512512511511513511512513513511512511512512513511511511512511511511514512513515513511510511512512511512512512511512512513510512511514512512513512512511512512513512511512513512513511513511513511513511512512512509513511510511512513512512513512513513513513513510511513513513511512511511511511512511512512512512513511513512513512512511511512511512511514514510512511512512513513513512514512513513510511511511511513513513513513514512512512512510509510510509511512512513512512513512514513513511513511513511513512511513512511514512511513512511512509513510514512513512511512513511513511513512509512513511511511514511511512512512512511510512510511512512513511512512511511513512512513514514512512513512513513510513509511511510514512512511512511515512512512515515514515513510511511512513513513513511512512513511511508510511512511512511510510513513511512512512511512514514511511511512513512512510511513512513512511512513512514512513513513512511513513511511509511512510512511513511512510515514514513511512512511512512510513511510512511512511512514512513514512512512512510513510508509511513512512512512513515512512512511512510511511511512512513512511514512512511511513513511512510512510515514513512511514515513512511512508512512513513512512514513513512512512511511512512511512512511511513512512511511511512511511512512512511513512511512512512513513511511512513513510514511512513510511511512511508512512511510512511512512512511515513514513513511512510512509511512512511512512511512513510513513513515511515515511510508511511513511511511510509514513514514511510510512512512513513513513514513513510510510513511512511513513511512512515513512511513510512513514512511511512513511512511512513512511512511511514513513515512513511511512512511512511510512511511511511512514513512515512512512511510511512511512509511512514513512513512513514512513512511511511511511512510512511513512514511510512514513513514513512514512512511512511508512513511514513511512513512514513510512512511509511509512511509512510511511510512512512514516515513514511512511511513512512512511512512512513513513512509512512513512512511510512512512514513512513513513514514512511512511512512512512513513510512515513512510511513511513511509511510512513511511511512512511513511512511512512515515513513514512512509510512512512510512512511512513512512511510513512511509511514512513513512512511513513513513512513512513511512511511510511513513513511509512512513512509513513513512512513512512511511512511511511511512511512514511513512513512512514512512511511513511510510511512512511511513511513513514514512511512512512514513512512511512512512512511512514511512513512510510511511511511511511511511512512512509513512513515513513514512514510511508511509510513512514513511513514513510513514512514514510512512511511509511511511511512512511513512512510513513512511512511512511509510512508511511512514514513512511512510512510511513512511510510512512513510513515514514515511514512513512512512514514511511512513512512511510512512513511511509511510512512511512511511511512513513512511511513512511511512511512512511512512509512513511513513511512512510515512515512512511513511510509510512512511513513513514514512514513512511512511511509509510511512512512512511513513512513514511513514513513512511512510510511511511512512512511513513514512512510510512513513512512512511512512513512512513512513512511512511512512510511512513510512511513514511513513513513514511510512511511511512511513513512515511512510514511512511514512512510512511512512512510511512512511512511513511513512514512514511513513513511512510511512512512511512512509514511513512511513513510511514513511510512511512513511513512513512515512512512511512512512512512509512511512511511515512513512511512511513512510513513513511510510511510513512512514515514513513512510512512512512511512512513512515511511512511512512511510511510510511511511512515515511511514512515515509511512513511510509511513511511511511511512513515515515512511511512511510512512512512514511512512512512511508513511514515513515513513512511510510511508509509509512514515515511510511513514514515515515514511513513511511508509512510512511513513512512513512511512515514512514511511512509510512512513513512511515515515509509512512511512510512512512513515516511510511511510515515512511513510512510512510512510512511513512510511511513512513514511511512514513512510511513513513511510510508512512514512512512515514513512511508512511511511512512512513512513514513513512512512512513514515511514513511513513514512513512510508512510512512511511512510513512513513513512511511513514514513513511511512513511511511509513512510512510512510512513515513513514511512510509511511512511512511513513512511517516514513511511513512510508512514511512513512511512512511513512512512510510512513515514515513512512512512515512511510511510515516513511512510510511511512513512511511513508512511511513517516512512513514514513513514513510509512514512511509511511514511512510511510512511511511510514512512513510512513513513515513513512514514512513511511510512511513515510510511513512512511511510511512514512512513511512512511513512513511512512511510512512512510513512512514510511514513514513513512514513512512513511515514514513515512511512511512515513512511512511512510511513512512512511512513510513512512511511513513512512514513513512509510510512515511511512508509514512514516512515518514511508510510517519514512513511510510510510511511512512514513513512513511514512513510511512512511512511511511511512512511511511513514515512513513512512513511511512513512513514514513512512512510512511511511511513512512513512512514514512512511511509510512512511510511512512513513512515515513512513515515513512511511512513513511509511512512513511513513513514512512511510512510513511510511513513511511514513514512513513511511511511512512514513512511513512513512513512512512512513513512512512511512512512513512510512513511511512511511512511514510511512514512513510513514511511513512513511511512513513514513514512513510509510512512512512512511514514513512512515513512514511511512511511510511513512513511513515512514513514514513513513511510511512511511510510511511512512513510511511512511511512512512515512511513511514514512512511512511512513511511513512510512512513513515512512513511512512512511513514512512511512513511512511512511510510512510512512513511512513513512512512512513514510513512511511513511514513511510512513513513512512511511512511512512511512512512512511511511512513512512513512512511511511513511509511512513513512514512514513514512512513513510510512511512511511512513512509510511512512512510511513511511512513512512511512514513515513514510512511512512511511512512511510511510511512514510514512511512512510513511512513514513513513513511510513510510513511513511512514513512512510512508511512512514512512513513515511513512511512511512510512511510514512513513511511513511512512511513513511514510511511511511512511512513511512512513512512512515512512514512511510512511512513513512511512513512514512513513512511512511510510509510510512512511510511512513513513512512513513513512513514513510511511511513513512512512511511510512513512513511512513513511513511512512509511510511513512512513513512512512514512511512511510510512511511510509512514511511512512513513511511513511513513512511512512511511513512512511512512512512513511513512512511512513512511514511512511514514512512513512510511513512511511512510509513511512513512512511512513511513511511511510513512512512512512512512511512512512513515514512512511512511511513512512511510512512513511512509511511511512512511513510512513510512512509512513515513513515511512512511512511512512512512512512510510510511511511512511513511514514511511513512515513514512511512511511514513512511511513512513511511508509511512512512511512512512511510511512513512513511513512513513511511512512512512512511514514513512512512514514512510512511511510509511509509511514513512512512512512512513512511512510511512512511511513511513515512513513512509513510511514513511513511512513513513512510512511511511511515512515513512514511513510511511510510510511513511512510512511512511512513514512513512513512510510511512512511512512514512515512513513512511512510511512511510512511512511511510513515514514511512512511511511511511509511512512513510513512511512512512513510512511511511510513513514509514513512512512510510510512511511513512513511513512509512512512512511512512513512513514511511512511512513512512512513512513514511511512511512511514513511513513511509512511511510512511512511513510511513514513513513514510511510512512509511513510510512513513514513517514511511512511511512511511511512511512512512512511513512514513511513513511513512513511510511513513511512510511512512511513512511513512515513512513511510511511513512512512514513513511511511511511515513512510511511510511513512512512513512513513513512512513512511511510512511511511511512512513512513512513512511513512510512511511513510511509511511512513513513514515513512512510511511513511511510511511512511512512512512512513513512513513513510510511511510511511513512513512512511516514511511513511511512511509509508511510511511510513512513514511513510514512513512511512512511514510512511512510513512511514513512513512513511512511510510512513512513515512512512511513511511511510512513512512513510510511510510512511512512511514511511513512515514513515512513511513514512511511512513512511513512512510511510512510510510511512511511512513513511513512512512511512512511514513512513512511513511513511513512511511512513513512512512510512512511510513514513512513513514513513515511511511510510511511512511511511512511511512512512511511513513512511511512511510508511513510513513513513512514511509511510511511513511511512512512511512514511512511512512513514513513512513514512513513511509512511513512511511511512514513511512511512513511510511511510511510511511512512513513515514514512511510510511514509511511511512512513513514513513512512511511512509512512513511511512513513513510512511512513514513513510512511512510512512510508511511512512514514513514515512514511513510509511510511514513513512513512513512513513512512512511513511512512512512509508511510513511511511514512511512511512513512513512512513510511511511512511512511512513514515512511514513511512512510509511511512511510512510511513513512511512513514511512512513511511512512511508512512512512511512511514513513512511510511512510512512515513514513513513514514513511511512512511511511511510511511512510513512513513511512512511513512512513513512512511513513514510511512514512514514512514513511512511510510511510511512512513511511511511512512513511511513513512512512512513514511512513511512512512514512512512512511514513513511510510511513513512512511512511512511510511511512513511513511512512513510513510511512512511510513515512512508513510512512511511510512512512513512512512513513513512514510513513512512513511510512512512512511512511512511511511513512511511512513512511514512515513509510511513514513513511512510512511513513512513511510514510510511512512512511511512512510511511511511512511512513515513515515513511513515510509510511511513511511512512513510510513513514512513513513511512514512513513512510510508512511514511511510512513513516512511511514513513512512512511511512512511512512514513512511513513511511512512513512511511512511512512513510511513513511513511512514514512514511513511513510512513509510512513514511512512511512512510512512511511511513513513512511512513513512511512511509512512513511512511513511512513514512514513514511511511512512512513511512512511514511511510512510512512514513514511512512512514511511509511511510513510511513512513513514512512514512511511512512511510511512513513515514515513515513513510513509511511511513512509512513514511510511511511512514513512512512512512512512513510511511512510511512513512511512511512512512511511511512512511511511512512513511513514512513512512512512513511512511510512513512513512513514513513514511513511510512512511512512512510510511512512512511514511511513513512511512512512513511510511511512514510511511513513513515512510513512512514512510510509511511512512512511513512515513512513512512512512513511511509508510512512514513512512511512512513515512512511512511511509513511511511512512510512511513513511515513512512513512511511512511512512512511512514512513512513511511510511512512511511512511513512515512512513511511511512512512512511511513513512512511512512513510512511511514512513513512512511512511510510511512511509511512513513515511513512511511513512512511512511512510513511511513512514512512513512513510511510512513511511512512513513512512515513513512511512513511510510513512511511512512512511512510512511511512511511512511511512513514511512512512512510511511512511513511511513515513513513513512511511514513512512510511512512513512513511514511512511512511510511511511514511513512513511514513512511512511512512513512511509512512512513514512513514514513512511513512511513512512512509511511510511513512512514512513512512513512509512513513510510511512512512512512513513512511511510512513511513511511511512513511513512514512511512512512513514516511511512511510511511512511511512511512511511512513513511513515512510510509510511512513513510513513512514514512512512512510511510512513512511513510512510512511511513513512515511512512511512513511512510513511513511513511512512513513513512511511513513512510512512510512513512513511511511511510511512512510511512510512512512513512510510511510511513515515512512513512513513512512512510513511512513513511511512513512511512513512512512511512512510512510511513514512513513510512511510513512512511510510511511512512513512511512513511512512512513512510513511513511512512512511512511512512512514512513512511512512513510509511512511513511512512512513512513512512512509511511512513513512512511511510512510511511512512513513513510513511512514510511510510511510511512512512513513514516513511513512513512514513510512510512512512512512513513515513512511511510511510510509513512511511513512513512513514513512510510512512513510511512513512511514514512512512513513512512511512514510510511511511512511512512513513513512512512514512514511511512514511511511511511510511511511511512512512512512511511512511510511511511511509512513512512513510512512511511512512512512513513513510513511515515509510511512512511511513512512512512512512513512513512512511513513510510511512510512511511511512511513513513515511512514513512512510510512513513511514510509512513512512510511511512514513512511511511510512513511512511512512513513513513510512512512514511513512512512512512513510512509511510511511509513512510511511512512513513512512515513513512513511511510512514514513513511512513514512513511510512513511514513512511513510512511511510512512512509511512511511511512513511510511512511511513513512511512511512510512513511512511513511513510514514514512511513510513511513511513512510512511510512512512512514513513514513514512511513514511509510512511511510511509511512512512512512513511513515514512512512511510511512514512512512512509512513512512513513513513511511510510513511511510511512514513512512512514514513513511511510510511512510511511512512512510511511512510511514512510510513513513512512513511512511512512512513512513512513514511510512512513514512513511511511510510509512512512513511511512513510511511511512512512511511513513513512511512515512513511512512510510511511512511512511513511512512512513511512512512512514513511512511513509510513511511512510513512512513510510514511509511513513510512509513515512512512513511511513511513512512513511511511512512509512511511510509511513513513514512514511513513513512511511510511512512511509511513513515512511510512513511511512511511515513513511512512511511511512511511511512512511512512512510513512514514513513512511512511512511512512514511512512513513512511512511514512512512510510509511509508512513512515514513511512512513512512512511513511513515513513512515512511512511512512512513513512512512512513512511509508511511512511510511511512515513513514514515514513511512511509511513512512510510511510511511512512513512512513513512513512515511512512511511512510511512512513511510514514513512513511514511512512511509512511513512513513514514511512511512513510511512512513513510511511514514511511511511511511510512512512511510511510513512512512512513513513512512513511511511511512510508513513513511513511512513515512511513514512511510512512510511513513512511510511514511511510513514513514513511511511511509512512513512513512512511512511512515511512511512512512512510513511512511510511514512513513511512511512513511511511512510514511512512512512514513513512512512512510513511514511510512511513512509508509512510513512513513514514512513511510511510512511511511511512515512515511513512512514512511511511512512512510510509510512512512513513513515512513512512513510512512511514514512511511512512512510511512513515512512513511511513513513511510509512512512514510512512513511513511514512512510512511511510511512514511513512512513513512512512512511511512512512513511512513514512513509511511511511512509511511510512513513511511511512512512512512513513514511512511511512512512513512511511509512514511511509513511511512511511512511510511513513513514513513515512513513512514513512513510512512511511512511512510511512512511513512512512513514512512513512511511510511510510513511513512513512513513512512512512511512512512512512515512512512515512512513512512511511510509511509512513512510511510513512512511511512515513514513511512513512513512512510511510511513513513514511512513512513512512513511510510511510513509512509512513510512511512513513512513512509512512511511510511514511512509510512513514514513513515515512513512513511509511510512512512512510512514511514513513511511511511511511510511512510513511512512513514513514513511511511511510511511511510512514514512513512514512513513512513514511511513513511512510513511512510511511512512512512514511511512512511512512513513512512512513515510513512511512511512511512512511512512510511513511511510513512513517516515511514512511512511513511512512511512511512511511511510512512512510510511512513512513512510512511512512512511512513513514513512513511514513511509512512511510512513513512515512514513512511512512512510513512511510511511512513511512512513513512512511510512512510513512513511509512514509512511512513511512510513511511512510510510513510511512513512513513512514512513513510512512511510511511511512511510512511512510511513513515515513512512512514513514511511511511513511514511513511512511514512513512511511511512513512511512511512512512511510511512513512511511512510511511514512511512513513513513512511512513512513512512511510512512511510511512512512513510511512512514513511512512513512512512513512512510510510510511512512512512512511511511511512513512511511512512512513513512514515512515512512514511512510510511509510511511512510513511513513513515513512512510514512512512510512512512512511511511513512510511512512512512512511512512510512511512512512513512513513512513513512513512510510510512513511511511512514511512511513514512513513513512511511510510511510510509512512512511511513511515510512512511514512512513512512512512512511510513513514512512512509512512513511510512509511511513511512513511512512512512512513513512510512513512512513512510513512512513513515514512511511512510511512511512512512510512514514512511512513512510513512509512512511511509509511511509512510513512513515514515513512511511512513512511512509510511512511510511513513514512512511512511512512511511511512511511512511511512512512513513512512513512512509513512510512511512512513514511510512514512512511513511512513513513512511511512511511512511510512514513513512512513510509512513512511508511513511512511513513511515512511512511511511511511510511512512512512513512513513515515512512510511511511513512512512511510513512510511513511514514511511511513511514512511511512512512512513513511512512513516512512511511513513512513512511511512513513511512512513511512512511511513511513512511510511511510511512512511512512511514512511512511512512510511512510510512513511511511511512515512513512513510512512512514514512511514513512512512512512513514512511511510511507509511513510509512514512513512512511513514512511512510513513511513514510513512513512512511512513513513511510512510512511511513511510510512511512511510512512512512512513513510511511509512510511512511514511512511513513512511512512513515513513513513513512511509510508511511513514511512511511513511512513511510512511511512511511511511511513511513513513513513514510512512513512511512512511513511511512511512512509513511509511512510511512511513509510510512512510512511511512513512513512513511511511512515513512512514511512513513514514512508511510511510510511511511512511512511512513512511514511513511512511513512513511513512511512513514515512515512510511512511511511513513512512511512512511513511513514514513515512511512511513513512512507510511511511511510512514511513513512512512512513512512512511512512513512513512511512513512512512511511511511512512511512512513513513513511511514513512512511510511511511512512512511512511513512513513512512514513511512513514512512513512512511510512512514511512511515512513513513512512513511512511510511511510512513511512514512512514515512512511512513513514511511510510511511510509509511512515513511513509512512512514514512512512512512512510510512513512511510510512513511510510510511514515514512514512513511513515513511512512514511512513512511512510510512513513513513513511512512512510510512511512511511510510511511511512510511513513514511513510514511513512512511514511513512512514513514510512513511513511513511512511512511512512514511512513510512512514512510512511511513513512512512512510512512511511509514514513513513514513512510510512513509510512512511509509510512512513514514513511511512513512511511512512512510512511512511511512512511511511512512512510510508513511512512514511512512512513513513511514513511512511511511509512512512511513512511511513513511512513512513511513512511511513512514515511515512512513511511512512512511512510510512512511512513512511513512512511511511511512511512512513511510513513513511515510512513514512512511511511510514511513512511511510512513511512512513512512512511512513513511513512512513512512514512512510511512512512513513512511509511512512513511509510512514512509512513515512513509512512512511512512512512510511512514512511513514513512511512513512512512511510511511512513511511511512512513513512513513511511513512512510509511511511512513511510513512513511512511513512512510512512512512512512512511512512512515514511515512512512511512512510510511511511513512511512512514512512513511513511511510511512513511509512513513513514512512515513514513512511511512511511513511512510513511512513512511512511512512513514512512513511513514511512514511514513514511513513511510511511512511509512511512512511512511512511512513512514513510512511511511514511515512510511513513513512513513514515513512510511512508511511512511510511514512512511512513513513512514512512511513512514513512513512511511512510513515513511511512512512512511511511513511510510511512513512512513512511512512510511511512512512511512515512513512513513512513514514514511512512512513512511511512510512512513512512510511514512513514512513512512512511513512510511511511514512512513513515513512511511511510511512513511509511510511511512511513514511512510512512512512511512512512513513514512512513513512511513513511513510508513514513512512512511511510510511512510510512513511511511512512514513514513511513512511512510511511512511512513512512512509512511513512511513513512512511512513514514511515514511513509511512512512511513512513512511511512511511510512511512512512511512512512511510513512511512512511515513513511512509510511513512512513513513512512512512512512512513512512512512512512510510511510511511511510511510512512512512513512512512513512513511513510511513515512513511512511511512512512512511513514514513512513511512510512512509512513512512513511511512512512512511513513514511515512511510511511513514514511513511511511513513512511513513513512514513515512512511511511512508511511511511512513511511513513513512512512516512513513513514513510513510510511508509513511512510513512512512512511508510512510511510511512511512511512516512513514513517518518517515515511514513509509511511511511513511510511512511511510513510511511511512511511512511511511511510509510513512513511514511512512513514513513512512512512514515512510512513512510510510511511513513513512512510512512511513512512514513512511511511513511513511510512510513511511513512513512513515513511511512512511515513511511510513512513511511511511512510512511512510510511512513512512513514513512513512512511511512513512512511512511512512511512512513512512511512512512512512512510512511510513511511510511510512513513514510511512511511513511513512513512512511512513512511512511512510514512513512513515515512515513512511512512511509511510512513514511514513511512511512511512512512511511511510511513512511513512513514514511512513511511512510511511510511511509513511513513513515513512513513512510512513511510512511512513512512513512512513512512510511509511510510510510510511510511512510512512515515514514512513514512511512511510512510511511511512514512516515514513515512512512510509512511511512512508511512513512511511512511512510511513514512512511512512513513511512512512512513514513512512514512512512512511509511511511510510513510508511513515512508515516514511512514511515513513509511512511512511511511512512514511512512510509512511514512512512513513514512514512515510511513513512512511510511510510511508511512512512513515514513512513513513511511510511512510512511511512511512512512515513512512513512511511511511512510513513513512513513512512511511511512512512511512511511512512512513514510511512511513512511513510511512512512512512512514512511511511512511512512512511512512513513513513511511512512513513511512512512511511513512512512513512511511510511513510511512514510513512514515512509511512510512514511510511510512512512512511514513515514512511510511512510511510511510511512512511511513513513512512514513512511513511511512511512512511512512512513515513517511513511512510511511513513512511511514513512511511511513512512514513512513513514511508510509512512509511512512514511514513513511511511511510512512510511510512510511513511513513513512513513513511510510512510510513512513513511511513512512513512511510512512512511513511510511510513512513512512510512513513512510513512513511511509512514512510512509513512514512512511513510512512514511511513510513511511511513512512512513513512513512511511512511509509509510512511512511513512513513513514513511511512512513514510511512511512512511511512512512511513510511513509513512511511510509512512512511511512513514514512513513512511512510510509510510512511513512512513512512513512513512512511510510513512512512512512512512511512514513513513513512512512512511512513512510509510512512513513514513513512512511511512512512512512513513512511512510511512512513512510512514512511513510513511512511511513509511513513512511513511511508513512514513511512511513512511512512513512512515513511513511510511512513514512510512511513514512511512514512512512512511512510511511512510511512513511510512513513512512514513511512512511511510512510510511511512512511511510515512512511509512514513512512512511511512512513513513512512514513512511513513513512512511512510509510512513511512511513512512514513512512513511512509511511511511510512514511512512512511513512511512511512512513512509511512512512511512511511512513512512513515513512513510510512511510512511513511509511513511512513513514512514514514513512511512512511512512512510512511511512513510511511510511512511512511513512512511512512513512512511513511510511511510511512512511512511511511510512513512515513513511512511511511512511508513515511512510510514513510514514513513511511511512512512513512510510511511514511512511513513513512511513513512513513508511511512511510512513513512513511513511511512512512511513513512511511511512511510513513515513513513512511513512512511512512511511511511512513511511512511511511512512513512512511512511510511515513511512512512514512511511510511512512512511511510514511512512512512514513512511511511512511512512512508510510511510511512512514514511514513512512510511511511513511511511513512512510512512514512514513512512511512513510509509510509512512514512511515515513512514511511511512513513512512511512511512510510511512512512512514513512512511512513512510512512512513511512512513513513511512512513512510512511511512508510511511512510511511513515513512513513512512513512515511508511512510512511513512514514512513512512512512513512511511511512510511512511511514512514514513513511512511511512511512511510513511512511510512512512513511512510511512513513514509511512512511512509510508510512513513512512513512513512513514511512512511513510513510511511511512512512511512512511512512510512512511512511511512511514515513512511511512511511509510512512512512512512513511513512512512510512511511511512512511511511511513511510511511510511511512512510512511511512512513511513511514513513513513513512511511510513514512512512513513510511511511512512511509513512512513511512513512511511512511512512513513514512512512513512514513512512512511514511511509509509510510511511514513515511515512511511514512512509513511513512514512512511509511511512515513512511513511511511511510510512511512512511512512513512513513514511514512511511512512510512513512512512512510512511513511511513514511514513513512511512511511512512512511514512514511512513512513512512510511510511513511513511513511513513513511511512512511512511512511511510511512511511513513512513512512511511513512512508511511511511512510512512513512512512514512512512513511511512512514512512513513510510511512513512514511512512512514513513511511513513512513513511512510511512513512512512510510512512511513512511513510510509512512512513513512514512514513514511512512511511512510510512513512513511512512511512511512512511512513512511512510512512513511511510512513513512513511512510512512512512512514514510512514514512512513511510510511511510513511509511511512512512513511513514512512512510511511511510511512511512514513513513513512511514513512513511510512510511511511509509511510513512512512513512512511510512512511510511511512512511512513511514516515512514512509512513512512511512511512511513511512512512513515511511512511512513510513512512513511511512512512512511512512514516513512511512511510510513513512511511512513511511512512513513515511512512512512511513512511511513513512513511512511513511512511511513512512513512512512510513514512512512512511512511512512512511511512512511512510511511513512511512512513516512512510512511512511511511511512511511512512512511513513514511511513512511512511513511510511510512513511513513511512512510513512512508512510512511512513512511511510511511513515512513513514512512512512512512512511512511512511511511513512512513511511513513512511512513512513512512514511513510511512512513512512512511513511512514513512511511512510511510512512514515515514514513511510510511512512513510513513512512511511512514515513511511512510512513511509511509511510512511510511512514513513513513512513513512510511509512511510511512513511512512513513513512513512512511513511513513513512513509511511512513512511512514511510511512513514511510511511511510513512511512512512513512513512512514514513513512512512512511514512511512511511512510512510512511511511509511512511512515513513512512512513513512512510511513511512511511515511513512513512512511511513513515511510511512513512510511511511510510510511513512509512512511514512513513512511511514513515514511513512513513513511511511510507510511511509512511514513515512512511513512511512511512511510513512514512512512513511512511511512512512513511512513514510512511512511511512512510511510510510514512513512512511510512514514515511513511513511512511512510513511512515513513512513512513512512511511511511512512512512513512514514512513514510512511511511511511511514513510511512514513512515511511513512512512513512512511513513511511513511511511513512514513511511510511512510512509512513510511513511511512512513511510511511511513513510513512512510511513511512513511512513512512513511512513513512513512512513513511513512513512511513511512510509510509510511511512512512513510511512513511511512513511512510513513512511513512513512512514512513512513512513512512511511512510511511510512512512512511511513512512513512512512513511515512512513512512511512513509511510509512511512513512513511512512511512513512512513512511512510512512512513511511513510512511512512511510512512514511514512514513514512512512511510509509512511511510513513513512511512513512513513512513512511512512512513513511510510512511512511512512513514512510511510512511511511513512511512513513512512513512514512512513512511511510512512511511511512511512511511513513514515511512511511513511514511513513511511512512512513513512511512512512513513512511511511513511511509511510513512511512511512512510512511512512513513512512510511513512514513514513514513512512511512511512513510512512515511512511513513514510512510510511511511511511512511511512512513516512512512514515513513513513513510512511512511512510510513512512512511511512512512511512514512513510512512511511510511511511511510511511513514513512513512513512511512513512513512514513512510512511511512510511511511511511512512511511514512513513513513513512513513511511512512513512511511511511511511511508513514514513512513512512513511511510512512513511512512513509511511513512514513510512513511512512511511510511511512511511511511512512512516515512512513512513513513512510513510511512511511512511514512510512511511511512512512512509512513513510511512513512512512511511513514511513511512510513512512512510511511511511512513514512513512513513512511512512511512512513513512515511512514511511510509512510512513511513513511512511511513513512513514513512512511511512512510512512511511511512513512514512510513512512512511512512512513511511510512512512513512513511513514512511513511512512511512513512511512513512511513515511514513511513513511511512511511512510510510512510512513510512513513512513512513512513512512510510510511512511512513513515515515513512513511512512511510510511512511513511513511513513512513513510510510511512511510511513511511512512512511514513514512511509513512513513513511512512513510513513512512515512513512512511510513511510512511511511514514512511514514513513513513511512512511511511512512509511509512512511512511513512515514512513511510513513513511512510511513512513515512513512513513512510512511511511511511512511511512512512513512514513513514513511512512513513513511510510511510511511511512512511513513512513515512512508512512512511512514512512512510512511512511511512513514512513512510511511512513512512512513511511513516514512514512514512514511511511511510511508511512510512511511513511514510512514514514513507509510512516516512513511513513511511509510512513513512512510511510512513511512512512513513511512512512511510512510510511512513514513513512512512512511512511513512512512511512512512513513512511513511514513513510513512514512514512513512511511512511512511512510512511513513513511512510513510510512512511512511512510511511514513512513512512514513511510512512512510511511512512510513513511512512514514513512514512514511512511512510512512513511513511511512511512513510511511511511511512512513512513513512513513513513513511511511512511511513513509514513511511511510512512513513510508511510511512512511511514514514515513513510512512513515513511511512512513511512511512512510511511512511510510512512512511512513512512514513514512511511511512510512513515513513512511512511512512511513510511512512516511511512515513512513512511511510511510510506512511511513513512512511513513515514512512511511513511512512512511511511512512513512513515514513512511509511511512512511512510512512512512513513511512512514512511512510510511513514514510512513512513513511512512512513513510512511513508511511513511510513513512512513512512513513510512511509512511512511511511511510510510511513513510515514513513514511512513513512512511512512512514512511513511512512512513514511512513512510513511512511513510512510512512514512511511512511511512510512513511513512511510511510513513513512513512514512512512512511511513512511511510512509512511511512512515515512511511514511512512511511511511512512512512512512511513512512512511513511513512512513511511514514512512512512512511511513511512512511513511512512513512512510513512512514512512512510511510511511512511513512515512512511512514511511510511515511515512514511510511510512513510512510513511512513512515513511512510512512512511510511511511512512511511512512514513514513513512513511511511512513513510510510511512512515513513513511512512511511510510513512512512512514514514514512516511510510512511511510511510512512513512511509511515512511511510511513513511513509513514513513511512514511512513513512512512511510512511511512510512511513512512513513513513513514512512512511512513512511511511511511513513511513511512513512513512511511513512511511511510512512512510510512516513513512513511511512513510514512511511510509512511512512512512514513513514512512512512511511512511513514513511512511512512511514510511511512513511512512512510512514513512515513512512512512511513513512514511513511512510511512513511514511512512512512514511511512511512511512510512512512512512512512512511512513513511514512513511512512512512511512514511513511513514513513513513513512513511509510509510511512512511512511513511511511512513514512510512513513513511512513514510511509512512512512511511512512512511512511513511512511511512512512511512513515513511512511512512513512512511513512512513512511512512513512512513515510513512512512512511511512512513513510512511512512512513511510513512514510513511512512513512511511513512513514512512511511512511511512510511511512512510512513514512513512511513513513513512511511509509513511511510512512515512514514513514513511512512513510511511512510511512513511515512512513512510513512512510512513513511511511513511512510511511512511511511512510514515513511512511511512512510511511513513513512512513512511514511513510511512512512514513512512513513512513512513511509512511511513511511511514512511512511513511513512512512512512514512511512512511514511512511512511512513513513514512511512512512510511512511514512512512512513514512511512513512511511511511512512511510512512511510512511512510512511512512512512511511513512512512513512513511513512513513513512511513513514512511513515512511511513512511512512513512513513512512512511511511512512515511512510513510511511512511512512514513512513512513512511512510512511513515511512515513513514513511513512512515514511513511511511513511512512511511511513511511512512511511513511511511511513511513510509513513513513513511511511511510512513511511512511512513513513512510514514513513512511512511511513512510511511513513513510511512513512513512512511512512513512511511509510511511511512514513513513511511513514512512512512510510511511514511512511512511512512512512511513511512511511511508511511513511512512516514513514512513513513513512514512511511515512511510509510513513513511513511513511511512512512512511511512511513511510513512512513512514512512511510512511511510509511512511512512512512513515512513513510511511512512513513514512512511512512512513514513512513512512511511512511510511512514512512513511512511511513512511513512512511513511512511512512511512511512513514514514515510510510512512512510510513514512511510511512513514513513512511516512512512512511511509509508512510512511512510513515512511511512512511514511512511511513513512513512513511513513513513512513512513512512511511511513514514512512513512513513512511511510511512513513512511512512512512509510510511511513513512511512515511513513513512512512512511512512512512512513512513513511513512512512513511512512514512513510515511513513513513512511511512511509509510510511510510510513513511511514512511514511515512512515512510511510512511511511514511512513512512515511512510513513511510510511515510512511513513513514512512510509510511513511512512511513514512512511510510514513512513512513513511512511512511511513513513512510512512514511512511511512511510511514512511513512512512511511512511512512511510512509511511514514513511513512515513512511513513513512513513512511513509512512512511512513515511512512513512512511512514512511511509509508511510512513513512513512513515513512513513511511513513511508509511511513512511512510512514513516513513512512512511515511513510512512512512511511513511515515512512512512513512510510510510512513512511514512511512512513512512511510511512513513512511511513513512510512512512514514511513511511512510512512513512514510512512512511511511511512512512513511512511514511512512512513513510511512512510511513512511513512513512513513514513510511511510511509512511513514511513511511512513513513513511512512511513511510512512510512511512511512511510511510512509512512514511513514513512511514512512513511510509512513512510511513510511512513513512511512511513513513513512512512513512512510513513511509511510512510510509511513514515514513515511511512511512511512512511512514512512512513512513512509511512511511512511512511513513511512512512513512512511513515512510511513512511512511513512514513510512512511512513513511512510511511510511513510511511511512512511512512513511511513511511513512514514515515513513511512511511511512511510512512511510511511512511511511513513513513511511513511511511512512512512513511515512514512512513512510509510509511514511512513513514512511513511512512512511511511512509511511513511513512511510512513513510512512510512513511512512512511511511513514512511512513514513514512512512513513512513512512511512511511511509512511509511513513512513511512512512513513512510512512510513511512512511511511512512515514515513512511512513511511510510512513513510512511512511511512512512512512515511513513513510512515514512511512513512509510512512514512513510511512512508509511513511512512512513512512512511513511511511510511510511512514515513513513512513514510512511511510511509512510512511512515512512513510512513511513512513512513512511511511511512511512513510513512513513513514512512510511512511510511510511511511514512512511513512512512513513513511512512512512513512512514511512511511513512513512512512511513510510511509510511513514513511511512512510513511513513512513511511510510510510511512512512513512514513514514512512513510513509511511511512511512512512513512512514514515514513512511515511512511511510510511511512510513514511512513512512511513511511512513510510510512513513513510511511512512514512511511512512514514512511513514513510512508511511515513512514513513512511511512510511511512513512515512511510513512512511511510511512512513512511510511511511512511513513511512510513512511512512513510511510510513512511512512512514514512513512513512512511512512512512511510511511512511512511512514512514511511512511510512512512511514514513513512512511513513511511512511511511513511512510512513513512512511512512515512512511511511512510511512512509510513512513512511512512513511513513511510513510511512510511510512515513515512515513513513512511513512512511511510512511512511513511512512512512513514511510512512514512515511511510510512513512511511512512511513512512511511512514512511512510513511512512512511513513514513510511511511512510514511511513512516512512511513512512513512511512512511512513513511511511510511514512512512512512513512512512512510511509514510510511512513513513514512513513513512510512512512510511512512511513511512512512512511511514512513511512513510512512512510512510512511511513512512513514513512510511512510512510512512511511512514513515513514513512511513512512512510512511512512513511512513513511513512513513513513512512511509511511512511510511512513513512513513514513513515513513511510511509511511511512511513514512514513513514511512512513512512512511509511511510511511511512514512512515515513512512512512511511511511513511512510513513512511514513513513510511510510510508512511512512512514514511513512512512512514511512513512515513511512511511510512513512512509512512514513511512512512512512513512511512512512511511513513510510512513513512514512513511513514513511513510514510513512511511514512510510512511512512514512511512512512513511513513512512514511513513511512512513514512512512511511513511512511513513513514511514510513513510512511511511510510512513513513512511513514513513514513512512513511512510511513513511512513511512513512512511511511512512511511512511509512513512515513513513513514513515513511510510510509508509510510512511511512513512514514512512510511513511513512512511511512512512512512514513513513512511513512512509513512510510510510513511512511514514515515514516513510511511511512510512513512512511513513514510510513510511512511512512514510510511510512511512512513512510515511511513514513511511511512513511512512514511512511513510512511511510510512513513513512513513513514515513513511513515514515512513511512510510513512510513511513513511511509511511510512511511511512510512512512513512513513512511513512511512512515514513512513513511512511509511511512512511514512514512513512513511512512512511512510512511512514514512512513512512512515512513514510513510512512512511512513513511510510511511510511509510511511513512514512512512512512514512515512512511513515511512512510509510512512512511511512512512513510513511513513512512511512512512513512511510512512513513513511512513513511513511514512512511511510508511511512511514511512514512512513512512511512513512512511511510510512511512513510513514513514513512514512513510511512508510513513515514515512512513514511512511510511512512512512511512511510511512513512512511511512512512511510512513511512512512512512514513514511511511510515513512514511512512512512512514512513512510515513513514513512511510511510512511513511511511510512513510511511513513512511511514514512513512511512511512512513512512511513513512514512512512514514513512515511513512512511513512511511510513512512511512510510512512512511511509512512512512512510512512512514511511512511513511511512511512513512514512516513512512510513512512511510511513512511512512510512511511515514515512512513513513510513510512513511511511512513515512513511514512513512511513511510511513512512511511512510512512512510512511515513512513512511511512511511512510512510512511511509512511512512513515512512514513516510511512513513511510511509512513514513513514511512513512512509512510512512513513512513513514515512512512511509511510512511512513513513513512512514511514513512513512511511510511511510511511508511511511513515512514514515511511512510513510512512511510511512513511511511513513513513510511513512513512509511512510512511512512510511512512513513513511511511511511513512511511513512514512513509513513512512510512510513512512513511513511511512512515512513515513513513511512511511511511511510511511513511512512511511511512512513513512512511511511511513512512512513512513513512512512511511511510512512510511513512511509511511512511513513515514512512513513512512512513512511512509510511513511512511514512514513513512513511512512514512511510513512514512512511512513512513511512511511511512513510511511513511512510511512513512512513511511511511511510512511512510512512514512512512513514513511513512512513511511512513514512511513510510510510512512512513514513511511513510509511512511512513511511511512511512511511512512510510512510514512513511511513514512512512511513512514513512513511513513513512511511510512511512511510511511512512513513511511512510512513511512511513511512512512512513512513512514514512513511511512511509511513513512514515512511513512511512511511509510511511512510511511512512514511511513513513513513512510513513513511511511511512511513512511513511512512511513513510511513514510511513512513513512515512513512514514514511511512512512512510510511511511510511512511512512514513513513511510511511512511512510511512513511516511512513512512512513512514512511512511512510512512511511512513513511511513511511510509510511514510511512511512511511510510511514514512513513514512514514513513512513513514512510508509511511512516513511512511511513513512513511511510509510512511513511512513513512512512513512513512512511511511514513515513514513512513511510512512512511510512513511511511511511511511511512511512513513513512512513513513512512511512511510512511513513512512511511511513510511514512511512512510515512511509513513512512512512513512513513512512513510511510511511512511512512512512512511512512511511513512512510511511512513512513515510512513511512511511511512511511511512513512513511511512515512514514512510512511512510514514513513510513513511511508512513513512512511511512513512515510512511510513513511512511513513513513512514512513512513512512512512510509510510511510512511511511511512512510512513512512515511511512513512513513513515514512512511512510509508512510511512512512515513513511513513512512511511509511511512510511511512512510512511513514513511512513511513511511512513513511512510512512513511510510513513517515513513512511512508511511512511510512513513512511513511511510512511511510512511513511511510512512512511513512511512512511510512512513513512511512512511513512513512511511513512512515513511512511512509512513512511512513513512512511511513513512510510509510513512513513514511513511512512513511513512513514511511511509512512510513512514512513513513514512514512511511511512512511511511512511509510511512512512514513514513512514512511512509511511511511511510510513512513512512512513513515513513513512511512515512511510512511511509512512511510509513512512511511514511512511509510512514513512513510513512511513512512514512514512512509511512511512516510515511511511513511513512514512513512512509513511511511512512510512512512512513511510512510512511511511512511510513513512512512512512513513511511513512511513513508512510508512512512512510508509508507508509511510511512514513511513513515513512512514514514513514513512512513512512514512512511512511512512512513513515513513512511508510512512511512512511512511511513512512511511513513512513512512512511513511511508511510512513513512513512511513510512512510511510513513513513512513512510512511511512512512512512512510509510512510511512513512513512512513515514514513511512511511512511512511512511510513512511512513512511513513511509511511512512511509511510511512515512516512512512513513513512511511513511512513512511512511513510512510512512513512514510513511513512510511510509512513511513513511512511513511512511513511513509513511511508512513512512511512515512511513511512512510513512513512512512511511514511512511511512511514512512512512515511513512511510511511513512510513512513512512513512512511511510512509512511511510513512512511512511513514513512511513514511511511511511511511511511512511512512511514514512512511513512513512511512511513514513513512512510510512510512511511511512512513512511509511512511512511514513514515515513513512514511510511512512510511513511511511511511512512512512512511514515511512513510512512511512513512512513512515512512512511512511513511511510512512515513513513512511511513509510512512512513513514511511511510511512511510513512514512512512514513512510513512511511510511512512512512513512513513513513512512511511511511510509514512513512513512515511513513513513511510511511512510511511513512512512513511511511513512513512511512513513512511510511510510512511511511514512513514513514511511511511512514511513512512515514513512512511511513512511511511511514513511513511511513512512510512511513512513513515511512510512512512511511510512511511513512512512515513510511511511511513513511511512511513514513512512511512511512511512511512512510512511509511513511513513514512511510512511512512512511513512515513512511512514513513511510511511512512512513513513512512511512511511512511512511513514513512513514511511513513512510511511513512512511511510511510512512513513513511512510511510512512512512511513513512512512511511512513511513512511512511512511511512512512513510513511512510511513513512512511511511511510511512512514514513513513514513512512511511509512510512512513513511511514513510512513515514510514510512513511512512511511511510512511512510513513512513512514512513514512512512513511512511512509510511512511511512512512513513511512513511512511513513513513512509512511513513515512511511512514513510513511513510512512513513511511511511513511512512512511512511512511512512512512511510512511514512513513512513512511511509512512513512510509513512512510512512512514511511512512512511511514513511511512512511512511513512514513511511514512511512511512513513513513512510511511512511511513513512511511513511513512511512513512513513512512510511512512510512512512511511513510512512512515512511513511513512512512512513512511511511513511512512512513512511511511509511512513512511513511513511511513512511512511513512512512512511512511511513510510512514513512513513512512510511512511511512511513513512512511511511511511511512513511513512513511513512514513511511511512512511512511511511512511512512513511513513513512511512513512512513513511511511514511512512512511511512511511512512512512513511512512511511512512512513510513512513512513514513511511514511512511511511512510512511512511513513512513511511512512512510511512511511511512513512511510514512514514509511513511512511512510511512513513512513512512513512511513512513513512510511514513512510512512511511512513511512512514511512511512512510510509511512512513515513511513512514512512511509513511511511512513512511510511513510513511514515513513513513512511511512510510510510511511511512514511514513513511512513511511513513512511513511511512513513512513513512513511511511512510511511512511510512513515513513515512512512511512510511511510511509511511513512513512514514514514514513514512511512512511513509510511510510511513511512512511514513512512513513511510510512513513511512512512513511512511511513512514513511511510512511512511510510511510514512513513515512512515511513511512512512510510512511512513512513515515515515512515513511511510512513513511512509511512512510512511512509512512512512512512513511512511511512511511513511512511512512511513512511511512513514512509511512512511512512513512513513511512511512513512512512512511512510511511512510513511512513513513512513511511512511513513512515513513513514514512512510511512511509512511513511512511511511512512511510511513512513513513511510512512514512513511510510511511511511513513512512512513512512511511511511512511512513513511513512510512511511515510512511512512511510511511512510511514515513514511513512515514513511512511512513511508513512511512512511512513513512513511510510513512513511511513513511512513513512513512512511512510512512513511514513512511513511512511512510513510512512512512511511512509511511512511512513513514512513513512513513513512511510511511514511512510510513512513510510512511512511511513511511511510512511512514514512513514514514513510512511513512512512513512508511511512512511512513512509512515514512513513514514511510512511513510510511511511511511512512513513513512511513512513512513512511512510511510513511511511513513512513512509512512515511512511512511511512512511512512513513512514513512511511511511512511511511511509513512514513514513514514512513511511511512512511512511511512513512512510515514512511510511510510514512513512512513513513513512513513513513513514511511511511513512511511510512512512513511510511513512512514512512512512515513512513512513512510511510511510511512513513511510510511511511512512512513512511513513513511512513513514513512512512513513511508510510512512513511511513513510512512512511511511512512512512511512512511512514515514513513514512514513512512511511511508510510511511511509513513513512512512511510510511512514515512514513513511514513513512511511511514513513512512513512513511512511512512512512509511511510512512512511511511513511512511511511512512511509512512512513514512511511512513512511514511512511511513512511513513511514513513512511511508510512512510511514512513513513513513513512511513511511512511512512512510512511512511512511513512512512513513512512512513513511512511512511510510512511512512513511513511511513512511511509511513511509511512515515512513514512514513512512511511511511512511509512513511511511513512513513513513512513513511512511510510511510509509511512514513514515513514512512513512512511512511512512513510511511511511512513514512513511512513512510511511512511512513513513512511513512510511510511511511511513513511511512512513513513512511514513513514510511512512514514511511512511511510509510512512513512512511511511511511514511514510512512512511511512513512512511513512510511511511513511511512513512513513513512511509511511512511512511511511513512513510512513512514513511511511513514513513513513511512514513511511512511511511512512512513513511513514512512510511514511512511511512511512511510511511511512511513512513512513515514515513510512512512509511513512514511514513511512510509509511512512510513512511509508511515513511513511512512512511513511513513514513512513513511512510511512512509512512511508509509511511512511512513513513511510513513513515513513512512515512512511511511511513511511511511511512515512512512513511512512512512510512510512512513512511511511511513511512512511512511513512512512513512514512513510512513512512512510512510513511511510512509513513512513512510514510512510511511511512511512511513512512511511514512511513512512513514513513512511510511511511511512509507509512511512514511513513515514513510511510511511512510512512511510513513512513515513513510511512512511514511512512511510512512512511513513513513512509511512510510510509510512513513512509514511513513514513511511511512511511513510511512511513512514514512513512515512511514512511514511510510511509512511511511512513514512511512512510512512512511512514512514513513513512512511510512511510512511511512513510512511511512514513514512513513512514512512513511511513513512512511511513511511514511512510512512514512510509511511512512510511512513512513512511514512512513514512511512512510513513512513512514511513513513512510512514512514510513513511514513513509510511510510511510511510513510514513512511512513514512512514514513513515512511512512512512511510511512512512513512512512511511511510511514513512512514512512512513511512512513513511510511513512513511511511512513513513512512510510513512513511510510512512510511511510514513515512513513513512511512512512511511512512513513512511511512513512511510513513513512512511510511513513513512512510512513510511513511512511512513513513513512512511513511512512513511513515512512512512512514512512512511513513512511512511515512514513513515511512512511511507511511510511510512513512514512513514514512512512512512513512511511509512512512511513512513510511510510510510512513512511511511512512512512512512512511513512512511511511515512511511512511512512514512513513515513515515514513512511511511512511511509508513512511513514512512512513511512512512514511513513511510509511510512510512513511513513510511512511512513513514512512512512511511511510512512512514512514513511511513513511514512513512511513513511512512514513511511513511512509511513513512512511513512512509512510515512510510512512511511513511512512512513513512513512514511512512511513512511512511513513511511511513513512515512511513513511510510512512512512514510511513512511512511513511512511512512511512511512512511510511513512515514512512512512510512512515511511512512512512512512511511512510512511512512512513513511511512512512512511511511512513512511511512512513514513514513513511512512511511512511513514511512511511513512515513514513513511512511512511512511509511511511513512511512511511513513513512512512512512512514513511512512511513513513512511514513512510513508511511511510509510512512513512513511514511513513512510513512514512515511512510510513514512511512513512513513511511512512513512511511512511511512512513512512510510512511511510512509512511513512512514513512512512513512512512513512513511513512513514515512514512511512513512512513512512511510511511512511512512511512513512513512514512514511513513513512513510512510512509512509512510513511511511512512513512514512512512512512511512514511510511512512512511511512510510513512509515513515513512515511510512511511511511513512512512512511512512511510513510511512512513513512512510512514511510514511511511511512514514511512510512511512513513514514514513512512512512511511512511510511512511512511512510514512510511512510510511512511511510513512511512513514513513513512513512513515511511513511511510511509509513514513511512513512512512515513512510510512514512511513511511511513514511513512511513511513511512511511512512511511511511511511512513514512513512514512511513511513512512511510510509512514513511509511512512511512510511509511511512511511511514514515513512514513515515514514512512510510511510511508511512511512511512513515513512514511511511512511512512515513512512513511512511512511512511512513513512512513511511511510510512512513514511513512513509513512511509510509511511513513513512513514513511511510513513514511512511512511512513514512511511511513512512511511512512513512511512512512511512512512512510512513512512513511513512513512510512510510510509510511512510513511513511513513514513514511511512513512513511512512511512512512513512513512512513512512512511509510513510515513511513515512512510512513515511513511511511513513511511511510511512510509510510510510513512513514513512511511513512513512513511511511513511512512513512514514513511511512511513514511511511510511512512510511512514514511512510512511511510512511512512511512514510513513513512515513513511513512513511512511511510512510512512513512513513513510511510512511512511512510511510511512512513513512513512512512510512510511512509511510512510512514513511513512514511513512511511512512513512513513511513513512513514512511513510511511512511513512512513