511512511512513512512511512512513511512511513511510511511512512513514512513513513512512513510512514514510512513510512515507508513514519511504509509512506507515511516523519509505513510513515513509511507507515515512508509510511511513514512515518511511512513509509511510512510514511511512512514513513512511511511510512510511510511512511511512513512513512512513512510510512513513512512510512512511511512512513512513512512510512511511512512512512513512512514513510507510510512514512515512512513510509511510510510513512511511508509510512512512510512515509511510509515514511511516514511504509518517511515515509513512512513512512512511511511513511510513512512511513513511513512512510509512513512507510511507510515510510510513514510512514516516516514507508510512509514515512512512510512517514513510511511507509511514514515514516511506506512513510511510510513513512512512511510509510511512510512511514513512513510512513511512510512512512511512511513511512510513512508509512511512512509511510509509515513512512510512512514514511512510513514513509507509509513512513515514513515514511514511512512511510511512512513513512511508511511511513513511513513516515517515512505506508510512513512511511515519513513516515512507507511512514513515512511509512514511512513510512510509512514512512513511510515512512511513512510512513511512512515512511511514511511510513511509511512515512512512509511513512515511513516519514510511504503509512517513506508508515515513512510512518514511511510511512515514508510508512511513513512512512510512512512510510511514514512513514511511510513512511513511510512513517512511512512512509511512511511511511511513510512514513514512513517516524516502501508506510511511509510514513516514511515515511511515515516511511511513516513510509512513511515513512510512513510511510512515511511512514514513513511512511513513509512511510509508512513512512512514511509511511512514515511515513510512511513510506511511511521513509510510508506512510517511510509516516511511510507507513521516520519504507506509510519513510508512512512513514515512505506514513515512515514513509509511510511511513512513512513512514512512510510512512514511512511510511510510512513511513512511514516514516516513513512511509508511509511512510511511512507512513511509511516506513515512509511515508507512513516518517514514516514509511507511511511510510511512513516511513512512511515515515514513513512510512512512515511511512512512510511510511512512512513511512512512513514511510510510510511512516518514513510512507508511508507505511515514517514505508512511509511512513515516513515513508507511512517513513513512512513514513514513512507508510509510511511511511511513515515513514511512515512510510510512512510511511512512512513512512512512515512513514509510511512512513513517512510510511512512513512514515515514513513513511512510511511510513513512511512511511512512513513512511513513512511511510512511511512510513512513512512512512512510510513512511515511511511511512512512512512513511511512511511509510510509510511510511511512513514514511512511513512512516513511510512510513510509509513510510513508512513512512513512512511512511515513512511509510510512513513511513512515514511513515510511511512513514515512511511505508513514519524514513511511510507510511515515510509511512514515515516512512513510512512514513514512511511505509509509511515518515514515516512512510507510511511512512511511509511513513513510513512513512513514511510510514512516510511510511510516513511512513515513510510511512510509510510513513513512510511513512511514513515511514507509512513512512507502507512514516516516513513514512515516514516513506508508505511511512513512513510511512511515514515508511512512513512512512509512513515516512511511514515512512511509511509507511513514513511510511512512513515513512512510509514519512507510507517517517513511514512509512514513510509511508515512513513514513513513515511507509514515516512510509512514509509510510509518519515511512513514514507509510507511519512512513510511511512516518516510514512510506507507504510510512513512515514514512510515514515511508516513510515514515511510505508512519515515510510509513514511513511506509505511516515508508508506512522514521515509512516513512511513513512506508508511512516513508511518516511515512507510510508509514513511511511512513511515513514512510510511513513515516514514512510512518515510505511515513508512507506512511505519520514502508508519518513513516515511509509510514518511512514513513510512510512513511510511513515515513512511509509511511512513508508511513511511512512512509507511512513513514515517512508510514511505505508507514520513512511511512515513512512511512513510513513514512510510510511514516513512512510514513512511512511512511509510512511512514512513515511510510511512515514513513511512512513512513512512512512511508508509517515508514515514516511508515510512511515515512512513512513511512510509509511511511512512512515512510512512513513511512510511510511511510510513514515512513513511513513513512511510512514511512511510511511511512513512512515512509513515513514511512510512511512512512510511511511514513512511512513515513512512508509508511513511511511510515508504513520515513515515514510510509508509512512514513511511511513510512513515516515509511511516514512510511510511511511513512511513513512513512509511509512513513511512510511511515513512511511512511512512512512510512510512512512513516515513512512512512511512513513513513513512510510508509511515513512512512512512513512513510510512513514512511512512511512513513511512511511512511514513511512513512511512510512512511515515514515513508508512511510510509510511511515514513515514513512511512513512513511511513515515505513511506506511513512513512511512513514511509512509511511514516513516515515512512505508512511509511514513513511515515510508510514515513514513512511511511512511512512512512511513514513512512511514513512511511510513512512512513512512512512513512511512511512510513512513511513512511512512513512513512510511512512513511512512515514513511512511514512509513513510513512511513512511514511511510511509509512514511509511511508511512510513512513508514513512509512511512511511512513511511511512511512512512511511512513511515513511510511513508509511511511512514511508512511511515514518515511511512512511510513513516511504510515511507512518511508513512513512511513510513512511511509510511513512512513511511514513514513517514515514508507509511511511508507509514514514513511515513512511511516515513513510512513512514511513513517518517509504503503508516520516513518512510512512510510515516513513512512508509507510511511513511511509511514515515516515512511510511511510511512510510509512515515513511511512514514511511512512512510508512511511512512512511512511513513512513513511508507511512513514514513507509512510511513512512511513511512512513511513512515512511509511510512511512513513512510510512511512513513512512509511511511512512511512515515512513513514513515513514510511512512513512511511508510513515510511512514512514516510510512515513514511512510511511511511511512513514515517516516508506505511511512513509507513518515513512514511511512510508509510511509511511512515515514514513511510512512511513514515515515509507509505504511512514512515513513511514512511513515512512510513512510511509512514513511511511512513512513513512512512510512508509511513512515511513512514512513511513510511507511511512509516515511510512512513518518509509514512510511515515515512511511512513512512511513513513515515511507510507510511512513513513510514515513513513513512513512510510512511511515511511509512512513513512512513513513512513513513513512511513512511509510510510512512511513511511512513513513513512511511510511512513510512512512512511512510512513513513512513513513512513509511510510511511511512511514511512512513512512514512510511512513512513511512508511511512510516512512513510511511510512509510511514512513517515511512511512511509513513512512511512515515514512510512513512506509512513511509512510512511510515515514512512511509510510510512514515512512512512513511510511511511513512512512511512512512513512516516511513510510511513512512513511512513511512510514514513513513512511510511511512509510513505505515514514516516512512512513510511511508510511510511512512511511513514511513511509512515512512511513513512509509508509510513515514513512512513511512514511511511510512513512512511512512510514511512513512511511512513513511509511510511513511513512511513512513512515513513513512511513511513511511513511514513512513511512512511511511511512510513511509515515510512514512512514511511512513514514510511511511509513512511511511512511513514513511508510511513512512513512511513511509512511511510513511512512514515515515512510511513511510508509516513519516514511506502510514519518515513508510508507509515512510510515509512511510511511513514512512511512511512510510510511511510510512513513511514513513513512512512510512511512512512510511512511509512511512513512515510512510513514510508515517515510513515512512513516515510508509511513511512511511512509512515515514511513512512513513511516510509509512516514512510513512513513509510512513514514515514511512513510513516513512514509506512513512507516512508512511516515513510514508511511504505512512511515513511509511514513513513513511510515512511511514513515513512513514512510508510511511511513514513511511511512511512511512508510514513511519512510510511510512513512514516515510513515508508510512511514511514513514509508510515513516515513513511511509515515513512513513511512512512513513510510507508509511510511514513512513511512511511515512511511511512510513514514512510512511514512512509510513511518516511513511510514510512510512511513514511512511509512517517512512513513510511512515513509512512512513511512509512511511511511513513512510513513513512513512513512511514511513513512511511514512511511511513512511512511512513511512513512512509513511511512512513511511512511513512512511512513512512511511511511509512513513512509512511511514511512512512510512511508509511512512511513515515513512512512514515514513510510512514512511512513513513511513511513514513512512512513511511511512510512511510513514512513511513512512513511509511513511513510511511511513513514513513513511510511510512512515512510510513514511515520511506509504507516515516520509508512512511513514515515514515514512512508508511513512512510510511511511510513512509512512513511512514511511514515510513509514512513508511511511513512515513513512513515515514513512510512512512512511512512512514513513511512511511512511512509509512514512511513512513512511513512513513509512512516513513512511509513511512512511509508512519515513513511510511513512510512511511511512513513513509509512509511511515517515511513514511509512512512510513515518513512511510509513513513513511510511512512511511512512513511513512510513510513512510512515510509512512513507510511512514515515514515509509511513511509507511508507513511510514514519518511514507508511512510512515512510510512512512513515515515513514513509504505510512515516512514513513515514509510512514511508504507510517522513513515513516519515512511506509510506513518512511522512508509511510507511514510514515511508511512512513512516513511511510511514513512511511508512514512513510512515512513513510509510510511510515508509510513513511516517512515512509508506508516519514510511515511506507510515512513515517513510511511512514514512510510511509510511513515516516512507504511510514518514508515515514511507515511506505505511512517516514513516514510507511517513510513505506508511506513518515512513517517514511512511510509513512511515515509510511509512510514514512515516515512510511511511508511511514513511509512513514521514510512515522508506510510510510509511507514512516511511512515515512511515515513510512516515511507506509512515515512515512511510507510513515514513512512512515512512508509515515511509502508507508513515519516513514512512513508508511509512512518516508511518511510507511511506508516519516513510509512513511512511511511512511508511509511508511511512513513513514515514513512512513511512512515511510511511509510511512514512513514513511511510509509508511510511512513513515515513513512511512513511513512512513510514514513513513512511512512512513512513511510512512512514513511508508512511513513513513514515515513511505509512513513512511511512511511512513514516515514514512509508510511511511507511514512518511511514514513511512513512508511516510504507512512513511512503508516511514515518512512512512509510512512512513512508507513513514520518513511515508508511522514509509510512511508508512514517510510509511515511508509510510518519520508508515513512517511510511511513513514515516512506504509510516507513512510511510513514516515513509510512513515511511509513512512515514509510513515511510514513512509510512510517514515514510510507504514504512519517511513515512513512509509512512509510510507510515513518521510507512513512511512513512512514509506508511512509513512511513515516517515512503505514514516513507506510515512513518516511507511515509509517512508508509511511514516515513515514515513508515516511508511511514510510509510512514511510512517512515514511513513513512507513510510512518512509514514515516518515509505506510516512508511510510511508514514516515513513512510511512512513515517516517514514512506505505510514511513518517513510505510512512513510512513512514513512512512513513513512513512511512510511509510511513514512513512512514512513510514512513512510512509510511509509510510511512514515511511509510516512510509510511509512508508510514512513517520513510513515511509508511509509509511512507507512516517515517516515510509511514512510509509512513509511509511515511510512513514510511513514513512511512511510510511510511511511512512514513512512512512511510510510512512511510511512512514511512512512510513512513513512513514511512512513512513510511515512512512510511515512514513510513511511510508510511511510511512513512511510512512512512511511511511509509508510510511514515514509511512511511511512510510510509511512514513511510511513509513513508511514513508512510506507510510509511510512514517514512512511510512512512510513509507506515516510511508511511511510512510507507511513511510511508505508509510514512511514511512512515505509515513510508504503510507504511513518516512508511508508507508510508508509509510510505504508509511512514509510513512512514513512509503502505507510510512510506510513510508511510510510515515510506508510508508505507511515512516513516517515511510511512512514507509512516513512512511512513513512512510514513512513515511511513512512513511512515517513512514515513514510507510514514514506507509513515514512511507507511505511523518512510509510507509507506509507506512512512510511510509508511510510508509509507510509509511510513512509510508509511509511510509507510510511508511513510511513512511513514511512509506506505510512508514509509510511513515513514515514511511510511514514512511512512512512515511513514516513512513514514515519511510511507508511513516511512511512512517515506508517512517515513512510512513508514517513512513513513511511518515510511512512505506510513514519512509515516511508510510511512512514514512512511510512508508509517516515509510513510505507510508512509507508508509510507508513510510513514512511504506510512512508509515515513513508504511515514514515511510511513511513514515516515515516514513513515511511512515514515515513514512512516517515510511513517519512509509515519518514508513507511511518520516518524518513513511510507509513517515515513512514516516519515511512508507510514516519515512514518517516515516516517516513511512512517526521514516518514516515514513515515516518515515514513520518509506512510515519524524517518513512515515513511506508512517521518516515511510511512512512517516515513513515516512519516510511517517514508515516510516516515510507507507507512515517514519522516518518514515517514517518514514515516513516514515513517516508511511513515516515514514514515513513510514510511511511511513513515513518518514505507508509514512510511504510513516517523512503508512511507512512512516511516514510504510513513512519514513512512511508509512512511510513514514512512512513514514513514515513512512511512511510512511508510512511508510512511515516513512512514511512513513515512515511509510513511511515514513510507510513513515515511511508512515503510511512511511512509515515516513511516513509514511509511512512513512512511511511513514511510512512512514511516513507508511509512519510509515517516510511508509510512513516513511513511511515515511509513517517512512507504508516514512509511511522512513515514516507508511507512508512512511516516512509510512513519514515512508511512511507508511513512510515514514515512510506512511510516516513509510504505508507511515519519512508508512512513511515512512512512513512511511513513513513511513512513515513511513512513511513512511510512510511511512512512512512511511511511515515510509509507513514513511514512515523517513510508508513512515517516514510505511511512514512512512510511512513513512512512512512513512512511512513511508508506512519518514513511506507510511513518507512515516514514509510509510513515513512508511511512511511513511512512513514511513511513510512513512511512513512511512512511512512511512512512511513513513518512511509510510510509509513516513514516512511504510512513514514508511510511510512514512511515517515512512507511511510510515513513513511510512512510512513512511507513512513512513513514511513509511510519518510504504516524519515505503511512513512512515513518515511510510509507513514512510512511513522516511512512510510507508512515511511510512511510513510513514514512511510511511509509509512512513513517513512508507510514513511512506507514513514513512513512512512510508511513515515519520513511508504512513510508514514517517513508500510512515513513510511513515516515515510512516516509504509509509515515513514515511512510510505510517518515514513512512509512513511510512509511511512512509508512513513518517510511510513514512513512512512512512512510509512513515511513517511507505509515517513511517512515515511506506512515511510512510511517518516515508507507509513510509512509511515518511512513512513512511513512511514515514511510511511515514512508509510509511514515513513510513510512510511511512513512510513513512511512513511511515510510511512514513513511512512509505507511515512515511513521514511515513516515511513514510519513509505502509511510512511511512511512509515512510516514515512512513515512504505512512513513513515513515515511515515512509511514512514512512514512512512513512513515510511512512512511513511510512511513512512512513511515513512512514511511510512510512512512513512512513511512511510510512510510511511509512511513511511511511512513513516510510510509511512514514514515515512512509508509510514513511512513513515510511512511511511511514514512511513511512515517515513508508505504506509509515519519510508509509518521513514513511512513512513511512513516507507507512512514511511511512511512512513510510513515512513511511511512516512518515512510509511513519514508511511511504512516511512511514512508512513513515515518512511512511512511510511510510514513516508509513511510520522515504510513514510508508506508515511512516514515511509512511515512507510513516514511512512513511505511513510511511512512513512511512512511511513510513513512511514512513512513512514514513511511510514512510508511512513511511512512512511510509512510510511511512516514510515515511513514513511513514511513513511511510510511511512512511510512513513512512512512512513512512507511511513512516514514515512508511513514513513512512511511510512512512512511512513512512512511512512513512511516517514512504504509508510517515511514518515512512513512514513508510509513512511511514516515515513507507515516511513510512512511512512512513510510509514513512512514511513511513511511511511511512513515511512513511513513510513513512513511509512510512511512514515508509508510511516510519521515513511511510507507508508513514515513514513512514513511514511510513511512508510510511513510512514510514513513511510512514513514512512512511511512511510511513514513513515511512516516512512512515509507511515512515514512515514513514509509510512511512511513510512513511510511511512517517512512514510508510514510510514511511513512511512510512512512513515512512512512513511511513513515508508509511511511510515513512513512511508509514516515511509512510512510510511511513513513514514514512513511504508509512511512509513512509514513513515513511513512513515512514512509509512512511511511508512512515515518510508509512506507514509508517516516515515509513519515510507511511512514512512512514513512512511511514513514511511511510511513512512512511512512512513513512513511511513512511511511513511512512511511511509512514514513511510507511514515515514513515513509508511512507508511511513513512514513512509511513513514514512510512512510511511510512510511510512515513512509507509515510512512510511510511513512512514512509510513509512513514511508510512519522512514514517511506506512512511511514514509511512511512513513512513512511511509509513516511512512511508510511512513512510512511512513514513513512513515515513512513510512511511513510510511511510508511513512513518518512506511508508512509509512514514513510514514511510511512513513515514516515511509506508511511515508515516514509514516515513514509511512510513515513512512510512511514512512511512510509513513509512513512512510512511512514511515512512512507505511515514511515511509513511511511512512511513516517509513515515507507507512508509511514512517508508507510511514512518524512511515516511509511514512511510511508510513513520517515511510510510510511511513512511511511509512516511511510511512513512509513512513512519517518516499496505509513515516516512514514510514512511510512514513514514513514510510511510513514512513512512513516514511509511508509508512512512514515515513513513513512509509506511511514508508512516514512511510509510515517514512503511511511508508513518516514511510508518518510508510510513513515518515513512515512510515509510505504508513512514513510512515513512512511514512505513517508510512517515513515511512513510513510505506511513512511507511511512517514510511512517512513513512510510512513510516513512508515516512513507509511511513512512512512511512512513513511511512511513509510514512511514513511513512512512511512511512512513512512511511512514513513511511511511511512512512512512513511510511513511512513513511513513513511510512511511512512512511513513514512511511510510511515513511510512514511507511514512513513512513510512511510512511511510510509511521514512515516514511506508504506512511511512512513512514514512512511513514514513510508510514511517516510510512514513514514510511510512511512513512513514511511511510511510511511511513511513512512513512512512512513512511513512512513511511511513511513512512512513513514509512509513512513513513513512511514508509513514514515513513512514512510505512511508511514511513512507508510512508513516516514515512510514515514511510504506506513508521519513514515510513512511511512509510511512512516513508510512515513514515511512510513509511510511513518514510509510514516511508514510505511514517515513509511509508507511508510512520519516515514513513512508505507510514512514511513518513515514515514511507504510513512517516511517512513514510508509510513511512513511513513512515511510513509504508513514510510511515520518512512513510510512512512506511520513512511509514511515511512515516511513509510509512512508509511512511511508511512511510513509514518513511513513512511510511511512512513511513513513511511513512513513513511510511512511511512512511510508513512512512512513512513513512511511511512511513512511512513512514512513508512513512508515514510510511514511511515515517516511510512512511511512512512512512513512511512512513510511515513513512512514511512513514514512510512513515514513515511513515512512511514511511513512510511510511510512511512512510512513515514511511512516513510513508507510509512512510513514512510514513516517511507509510512511510510511508511512513514511512511511511511512513512512510512513511512510513512513512511510512510512516516512512512513509510510511510510513514515512514513513511506502506510518515515514516514515507509510519514517519513506505504511512513513512510513511511508511512514510511513515510511513512515512512512513512513513512514511513512512513511510513511513510513512511512512511510511511511515513512514512512513513511512511511512511512510510513513512515512511511511513515511513511509510511510511513511508510510513511512512513513512510512511511513513512515512511512512511512511510508512512513512512510511511512511513510512510512511513514512515512512512513512511512510512511512513511512513513515511511511513513512511512512512512512510512511510509512513511512512512510512513511511512511513513512514511514511513512512513512512511511515512512510513513513512512510511512514513514513513511511511508511513511512513511506515515513509508512516512511513512515515514514512512513513512513510513511511513514510509513512512512511513513512512513515511510514512512510512512511512513510510508510513511520519510505511513512511509512514512514514510511511512511511513511511512511514511512515514511511512511510510507513516512515514510509513512515515511510509514512514516509509514510506511511513511514515512509508513516513511511516511504508511511514513512514512515513512512511509512512512511514511511512512515509511512513510506511514514515514512513511512510513512511512510506509511511514512516511514518514507506519519517513511508503512512510510509515513515518516511509510510513516513510509507508510511509512513513513516510512512513513508511512511513515512512510514513511511512512508510514514512511510508511510513516513518518504509512512511514514514513514510509509512515520516515511503505510511511516514512513511512509518518513517512506508510508509512516520515515514514513513512515512514512515513509510509511513511510510509511513514512510511511510510510510511508510516519512513513514511512515512512510509509509513524514505508505513517518512511513508507510509509512511513516510508511516517515516515513507508512514508508513511515523509501507512505513516508513514512513512512512512512513514514516512515516512509516515508507519511513513513509510507511515509511511512509509513512513512512514513514513514511508508513512513511510512512513519513513514513506506511512514513512512512513515518519505501508516518515517515506501504508512515526516512513514517512508512511511508509512511512513515516510507512512513515517510509506508511513512513515511509510511513515513511514514513512515513510510507508510504515519513512512510505513506509508509514519521519516514506510507505515513514511511511510512511513511514511510510511512511512509511518511513511509510511512513509512510511511513513516513513511511512512510510510509514511511512510515518516518513510510507508514515511515510512510513519515517511504510510515518514508511510507508508509512512512519514512518508506510514513513513516513507510511513510511510513515516519513512513510512511512512511513514512510511513517515511510512511510511511512507507515516511513513513513511509510504511510511514513521517511514511509511509511513511510511508511512512513515518516515513513512512512512509510508510510511508512511511515516512511514512510514515513509509508511511513510511511513513512513516512511511511510514513511509513512515514513514512513510510512511510511512512511513512512512513513515517509504507510515519514516511508513511513511504501517520511508511512513515512513510513512512515514510508511513512513513507508509509513514522520515510507511506506509513516519516512512509507508504508516514518519514513512506506506510512512512511513515515514511511510512513513510510511511512512512512512512512513511511515513509513511512509511514513512511511510512511514515514511511507509516512515514510506510514510510512503508518522518514510512508506512513510515514510510512513516516515515515515513513512512510509511510509510511513512512513515514511511513512512512511511510510512512512512511513511512511511512513511510512516516515510508508508509512512515514518513510509512512512513513512508510511513512511512510514514513512512513512510512512512512513511509512511512509511512511512512512513514513513513511511510510511511513510509509514514514519508510512510513517517510507509511510504510511516515514512514515513512512512511512510511511513512515517507507511509512511512514512513510514515512512512510516514511510511513509512514514511511511509518518508508509508509514512513513513511513511513511511513520515507511516520518514511506508508509511510510512518520515512512511506510512512507512512513513512512514511514508508512515513515513512500505513519515513513515512511509508512513510513518517509506509514512512511510511512512511512513510510512512513511510514512510511512511512510513511511511511510511515514513513512508507509510510513515506517518511511517515510512515515515513511510510510511511509511516513513511512514512513513510509511512510510511511510510512511512512512512512512512513512514512513512511512512512512512513512513513512513514512514511515511510510512511511511513512512511512512514514515512512513514518511508505507509510510512513512515512512512514512513511514513512511512512511511511511512511511513512512511513513513512512512512512512512510511511514513511513513512512512512511511511511511512512511510511513513511513512512514514513511511515507505505513509514511506507514514519510510515514513513510512510511510512512512511513514516515513512511510510508514513514503503511514515517523512510513516514511507508508512518509503512512512512509511513513512515515513512513512512513512513513513514511511512512511509510512513512513514512513511513512512510511511511508509510513516516514513512517511512510511506507508513515513516516510511508512515510511511509513511519515508509509513512517514513515518510504511511512512511509510512514515510505511511513508509511513513516514511512512519519512511514511507510512511513509510511510513513515510512512512512510512513513512508507513513506515511511513513512512511518519517510509505504511513515516513510510508512512512512519518514507512514512513512511511510509510510512513512513511512511514515512514514512511510510512510513523512504504507510518510512516512516515511511510510510511505510514518516515513517512511510510512509507508515516513513517512509508510511513511513513515511513516510511513508508510510513512513518511508508509510519513507510514519513511512507510510510507512523515509512504503511518511508515516510506520519514511514511510511513513505505510512512516508513512512516513503508512510513516520517514511512514511516512510511510509512515512509507512516514510508512515512511512511511512510507509513515522515514516511513514508505508509509512516515521514510507508511510511512516515511514518506512508505515515511508512511514513513513512512509509511512511509511512512511512513511511513515509512514509510517517516512511512507507504513511512512513514513513510514513510512512505512512506518519511509511508507510509513507507513515517515515511511513513514514512512511511512506505515518515515514510512506511513511512511512511512515513515514511512507506513509510510506505527521508508510510517513512513512519512511513513515512506503508509510511515510516514516518518506511510509512512511510510510513513511516512511512514515513512512513514511511513513512510509511513518521513509512510507506512508510508508511513511510511514514510510512518513515508509520521510511511511511512513511512502504510513516511513514516513512508511514513512512515512511510510512510510511512511515513512515514513507510513512513519512506504508509508513517515515513515510511511511513512514514517515506505501511519526516508511507513511508515513511511511510512512512510517511511512510511507511517517517512511511513511509510513511510513513512513515514512510507508512514513510512514516514515514515511507513510509508511512512519512513517519505508504506510510512517515519515504508509522514510513508512508506510514513513515518515514513515518512512510512511510510512512511509513511513513512511513512513511513512513513513512514512512511511512512512512512512513511510512511512512508509512517518513510510508512516512513511509510512512515514512511512512511512513513512512511511511512514512512512511511512511514514512511513513513512512513512511511512512512511513511512512511511510510513514511512511509511512511512512513511512512512512512510512513511513514511513511514512512512512511511512515511513514511512511510513511512512512511512513511511512511511510511510512512512511512511513512513515515512511511512510512511512513513512508508511510511512513504509512511515515511508518518514511515517513513505506512512512508512511511511512512512513513512513513513514511512509510515518516514512512511511511512510511510513511511512512512512512510510510510513512512511510513514513512512513512511511513511512513512512510511512510510511514512513512513513514512512512513508510512514513512513511512512512514514513516513504504506513508512519524520511509502502504511515518516523513505505510514511512509514512510511515513513513515512510514514509510513513514514512510511514512513510512511512513510511511511511511510511511511510510511512511510511512510511513512512511512512511513513513513512510510512514511511514511510510513511512513512513512512512512515513515514513512511512511512512513511513511510510511511511511509513511513513512512509511511511514511509512512514515514511515510509512518513510510511510511514511512512512512512514513512514513512511514514511508511510512512511511511512513511511512511511512511512511512512511512511512513512510510511513512512512512512512513512511511511513514512512514514513514510512510513512511510511512511513512512511513513513512512511512513511515513509512512513515513505506508512512513513511513511513512513514513512513512513511512508512510512515511507511516518512506505509514515515514513511509514518521515507508508511517522515507506507508510511512515514515511511514513511512513513511515513511511512511511512510511512510511511510511511513513511511512512512514513513513513511514513518510505507508511516516507506519508509513509510510508508505516519511510514517518517511508511513513513513514508509512508512512512515515512507507511512514514513514514511512512513511515512509511510512515511511509507512515513516521511512514506504507509515516509513511510510512511513512514514513516515510515515515516512511509511510511518514512512512512510508508512510516516515514514513511510512512512511511512509508508513512512514515517514508502513521514507512517509508510515518518518515495496504507500505508523530521518518517512511512507508511510511509512510513516515511511511513512507511512518520515513510509505510511512512510511511510511513511512514512510511511506505510517520520516519521507511511511507503503513517514506500501507515523520521513508515515519514508507512511508511513512512513514513513514515513511514515513512511510511512512512511511510511512511512511512512512515514512514512512509508510512515514508507505510519515513512511512519517513513511515511507503504508514515514512512515516509510511511514512508508506510512511512515514516515515513511515510510510511512513514512511511509509509512512514516512512511515515516508509511512510511511509511513513512512511510512513515512511512514512519507510510506512518517518516514513507508508510511511514511512510514516512513512516515511503504504511513513517516515512519511508511511514515513510513514512513515513514515513513513512511511510511511513513512513511512512509511512512511511511512513512511513511512512513511513511514513514512511512514510506506511511511511512510510512511512513511513512513513514514513512512508511511510512510511512512512514511511514509510512513514512512511514514512512508514519513510511513513511513511514513512512513513504505510510514513512514515513513513513513512511510514513513512512511512514513511511512511513513511511511512517517514507507516516512510510512511509516515514515512509510505505511508507509516522517515512511516513510507509509510510515517515515515512512512511511512512511512514512512511513510512512512511509509511511513513512511513511512513515511514514520507506511510505505509513512513514513515514511511508516512513516520513511509515514509508511510510512513511512513511509509511516515510509510516511520521512510504510505508512512508506508511515518518517519513519514512513510507511516515515518511503500507508511511510513510511510512517516518513511512509509515518522511508508508512513513515513513513510512511512510509512511510504507512512514516514512511516518514513508510511509507506509511515519516515514512509511512513509519499504507515510507513513513519522515511511510511509510512513511513516514509510508506508515515516515513512512511511512512509510509509512513515513515510513514512512510513511507510515516511512513511513511507513512507509512514515512512511512513511511511513514513512515511508509512512513513511513512512513514512509510511512510511513513514511512511513511513512510512511511507510513512515513513510517519517513506511512514512515514515515515511508511511512513514512511513512510511507510511512512516520513509510509512514513512515513511512511512514513509512508512509511510511512513511511512511510511510512510510510521514505508512512515514511515516511508509509510511511513514513518513504505510514512513512511511508510512514512512512512510510511512512512513513513512514513515513512512512511512512515510514510517508507507515510507512513512515515515513512511511512511510513511514511511512512512513512512512512512511515514513513512510512513513515513512511514513511515513511513510512513513512511508512513512511510514512513513512511512512512511513513511511510512512512512512512511511512511510512512511512511512511511512512512513513514510512512509508514514509515519513508507510512516523516513516515499502508511511512511510514513514512512512511511513512514512512512514511514512512510511512511509511515512511512512512512513511510510511510512512513515511509508511511511513512514517515519518512507511512512513513512508511511511513512509514511512518516514511510512510511513513507508511513515514513511509513511512512513511517513512511511512511512512511513513512518519515504507508508507512513508509511515521517511512515515513512510506511515511510512509511512510511517513510507508514514512511511506509518517514516516515510508512515519516512510512508507508512512513516511510512508508512512512513515516512511511512510511513512512511511512512512512512511509511511516518514512516507502511509512518515508516512503516515512508506510522519511506509513512519519519511508505511513507510513515513513512512515514512512513508507511507510511512513517515514511511512513514510511512512511511514513513517514507508507510512510513513509508508516520514513508507508510511511512514515511505508517511515516516521517509507507511514514512512511511510511512515512512511511514511511513512511512514511510511510512520512511513510509509510513511512512511509513512513517510511515519519512509506508511511508511517519512508515513507511505504507510512516518518512514511512513509513513509513515514513515512511510513512512512512511511510512515512511510510512508518515515515518513515510504505505510519513506511515512516513514506502506506511509513518520514511513512511512508514526524514506495496514512513514512513515510508513514515514515512510512511514513510513511512512509511512511511512514515513512512512512511511511511511511511511512512512512509509513514514509510515511512513511511510512514515513510508514511514513511509509508512510512523518511512510508514513511511515512511510507515515510514512510511519515511513513513509511515511511512510511511510510512516516514510512512512514511512512512510513511510511513512512511511512514511510509511512513512510510512512515512508511511508510513513513513512511513512513511513512508515512513511510513513513514514511510513513512511514512512510511508510512513516513511511511511510512513512513512511512516508507513515503508522523523514509500503504511515510511512512515515514510511513510505511518518515515516521509503503508512512515514512512509510514513515513513513510512512512512516512512509512512510512511511512512513512512511511511511511511512513512512511508513511511511512511514512512512511513511514511512512512511513510511511510512511511510512513513511512513512512513512512512514512511513511513512513511511513511510513511511512511512513511513512510508510513512513515513513512511512513512512510510512512511511511512513514513515512512510513513513512511510510511512512513511512510514512512511513512514513513510512513511511513512512511510512513510512513515512511513511512511513512510507512516517514512510505498502509512512513515518515512514516513515513511512512512510510513514512510510512511514513515510507513512515513512513512513512512510511510515512515511510511509511512513512510513512511512512512511514511511511511511510511513512512510511513513512512513512514512513512513511510510512512512511511513512512515513513508511509507514516515513511511510511511512512513512512513513511511511512513514511511512514514515513512508507504511516516514513515514510511510512511512515512510513513512510513512511512513512511510511512511511510511512510511510511512512512512513511511512513512509512513513512514511510510511510513515515516518507507517518511502501507512511512511513513515517516515510511509509516507508510507506512518518515513511515515510512514513514511509511510512511509511512514513512513513511515515512510510512512518511510511509506504512511511514515519518513511513513510512512510505509517519515511502506516513518516513513513508510514511507513512512517513506513513508511512519517513510510514512511512507509513513512510512512515515515512511510512511514511511511511514513511515512507512513512513517516508508507511513516514511512515512503515516505507514513513515519511511513512510509509511513511512511511514513514512511510507503515515512513514511509511512512511514511512512512511512514513510513512513511512511512511510511512512513512510513512512514512512512513511510510511512510510511513514512511515512514515511512512511512512512512514512511514511511512510512512512515511511512514509510510512512511511511509512512512511512514513514512512513512512510509513513513511511513512513513514512512513512512513512511512512513512510513513510508511512515512515512508507511510511512512511513512511513513512511508512512513511512509512512511513512512513510513513512512511511513511512510512513511510510510513514512510512511512514511512515514513515512507509514511511509514512511513510511510511510507511515517513512515514511512510512512511511513516511510510512511513516518513512509513516510508509515516512512511509511511515514508512510506509514516513515513508513512512512512512510511515512513513516510509511511510512512513515512511512509510511516516515515515509507508511510511511514512513511512512514515511509513512514510511511512513513512511512510512513512511511512512512512512512512512512512511511511511512511511511512511512511511512512512512511512513512511511509512509509511512512514512512511512511510512513513515512513509513511510514513513514514510512514512512512512510512511511512514514512511512512514511511511512511514512511511510512512510512513512513512511510511512513513513513511511513512512512512514513510511513512511512513512511511510513514513511509512513513512512511508512513512512515513510510513513514505506510512512513515520515510508509511511513514513513512510512514513509510508511512512515523519512512506504511510512513513510511511511512514513513514509512514512511511508508509511512512511512511513514511512514513511512511513513509509513515515513512513511513511511512511514515509504509507512515515513510508514516513508510519514512515515511513516514509511509510510508510513513511509508516523525514504508505507510509512512511511512515514513512512512508511512513513511510513513516512512512513511508511513514510511512512514510511509509511514510512518516508509509509511508507510515511519512507508507508513512506510512517518513512516515513510510507512515519516514510506504504509511511520517509518516511511505508511512513511505510512512513514512511512515516515512511509509513510510511511511510513512511511512510511514513512513512513512513514517515510510508511519520513512510504501503506511515512513514515511509510516513512510511513512514518514513510511512512512511512511511513512510513513514514513508511511512509511512510511511512511511511515512512514511509510513512512513513513512511508512511511513514513513512512511513512511514511512512511508508509511511511510510512512511511512511512511511509509510511514511509511510513511510513514512515513511511511511509512511511510512512513513511515508507510513513511509508512513513515508501504513523519513520515511507517514512510508512509511512513509513515509512508507509512515511512518517513511510510512512511511513515513513515509510511511513515511511510510511513514514511514512514516513511513515513502515519513509515514510512512509507510512510509509512519510514509506515519518513514513519514513516514513511511511512519517511508505505507509513515513513513518517513514512511512513511512513515517515513507510512509511512513515513513512513510508510512518527519504506517513509512509508513506505511512519515516514512512511511514513512511512514514513511513513513515513512513515510511512514511511509510508509510512518515515516514511510510510510510510514517513512511511510504511513502512522519515518512507504504511509510516513510508513516515517512511512514513509509511511511517519509510513511510512511514513508510513511512514514512512511512512513512510510512512512511510512511511513513512511510510509513515512512511508511513512514513511511514513512512512511509510515516515512511509510513516511508515515518515512515512512515511507511512513513512511511515512517514511509511509508508517518515509510511509513514514517520518511512512508504508511513517516511510512511511510511511508506509512511516513512513512514513514516506509511513514512514511512510508510511510511513513515512512512511513514511512514513512511512513515511512510512509510513513514516515511510511512514509510511508510511510508510508511515517515517516505503512511507508512514515514515512509512510510511512513509511511512510510513512511510512513512513512511510510511511511512511513510509510510510517515516521517510503504507513520513514508506507512512510512512515516510509511508508515519514520517515516511507509503507512511511511514515512512512512508511513512512509510510509512512512514512513511512512512511510513512513514516516513508508509509512511510509510510509511511518520515511511508504509508510510511515516519519514503503506511515514514518513509511517509508514511513511512512509513518515512510508510510510509511513511512510513511511511513512511514512511515516508504507510512521524524517512508504512515518511510511511510512511510506513512508511516513509510514515514515511512511511512509512512512513513513511512513512511510513512511512512514515512512511510506510510514512513517516513513515509508511509510512512514518514509509507507510516516513513509509512515511509511513512513516515512513510508511513511509509514516511512512510511512513511516509507511515511513512511512513515513510510510512511513511511505516511510513513515509508512514522513508508512512511511511510511516512508511510510510514513511513512508510511511511512511512511513511513515512510515516516511509515514510508512511505513510512514512512515511514511511512509509509510516511507508512507515517514514513508510513517516512510511510510505506512513520518502508521512505506504507508510516515513511510511508510512513513514512512515513512515512511510511514513513512512506511512513518513513509513512514512513510508510510512518510512514517512512515515515516514515514514509510509511510512515513502506509516518521519515506511513510510508511515513511512511509514513511510510512514512512513514512509512513513514511513513513512513513512512511510512509513510511511513517513512514512509511510514515512511510513513512512512509509511513512514513511511511512512512512509512512512511514513512511515514512511511511510510512511510510511510509512511512512512513514512513512512512514512511513512512511511510508508512512513513514513512511512511512516512508515511510509513516513511512511512511509510512512513512511511514513510510510509507508509514520512511513513513513513512516518509504508513516515511510507508513519517512513512514515511507505508509511516518518516510510510511509515519512512513511510510514514514510512509506508515518516509511512513517514508509506509511511512513513519512511508503505508515513516517517512515511509508508511513513511512510510513514516512515515513513512513512513513511508509503509511513508509515517518512510509512513515508512518517520515513510504505511513511508509510511510511510515510510510512511512514513511513512511515511514514513511509508507512514515512511512509510511513511510510508510510510511512515516513516515514514510508511512515514513513513507509510511510512511513513512515512514512506510508515522513515517517513512512514512510510510511512513510510510512510511511509508510512512513513515515517513507506504511517523514513508511516517510508507509509511511510509510511511510512511513512512512511513513513515512513514511511512511512510510511512512515515514513511508510513512510508506510510512516513514513513511512511515517521514501512515511512510511514510513512513512512512512513514513513512510509510511511512514511510511511510511511509511511510512515515518514522511508512512505506514516510510510510512511514515510516513503508518515511512512515510508510513516511511513514513512515513514515513513511511510511514515511511513511512510513520516508506512514519513511512508512513513511512514512511507508512510513513513515512510512512515515511511512513513511515514514514512511511510511510511515512512508511512510515514511511512511512513512509515511513512507510515512512511512512512511512512512510512513511509511511511508509511511511511512511513514513514512510512513513512508512510511509511512513513514513512514515512513513512510512511510512511511515514515516515512514519515513510512513509514512512511513513513515514510509511512514512513514511511511512513513512512510511512512512513512511516514513513513512511509509513512512515513511505506510510510512511513513512515514513513511511513515510512514514512511511508508510511511513515515513513511510510510511513510512512512512514512513512513512511512512509512513513510508509512511514514513514512510514517515512515514507507508509510513515513513512512512512509508513513513512513514512512511511511512512514515513514511511510510512512511512511513511511511508515516512513510509512514514509509512517515510507504510517514509510512510508510511513516514514514509513514514509511514518517513511511510512513510512512512513514511512512512512511508513514512512513514513511511512511511511509509511513512512511512511513513514512514514505513515511511509512511507509514512515514512511514512509508512511512511512516519513513510512512509510510510514514512513511507511512509509513511514516512510512509507510511514524519512508515512512510511511512512513511512511510510510513513513515512510512512511511513515512512510507512515512517512511512512515517517512508511505510509512509511512511510510509513513511508510511512513514512515512513513514513515514515511503505512512515514514516514510509509513507512511512514512512514513515512513513513504509511512510512511514516512512511510511511513511512512512511510512515513513512510512513515513512515513512511513512514511511510512511513512509508511514517515511515509506509513516517514515514510507508511512515514512514513511511513515511512512512513512511512510513513512511510509511510510509511513512512511513513513512513513511511512511512513512513510513509509511511512518512508511513511511512512512511511511511512510511512512511511510511511513511511513510507511511510512512511511512511511511512513511511510512512511511510509511510514512512513511511512513510513512512514512512510510511512513512512512511512513512511512513516517514511512512508512505509516513514508505510511510516514512515516514513515514511511512512511511512513513513515515515512511512514516515512513512512513515513511512512508511508508511519520515511514515511513510510511513514513512516514513512511513511513512513513513514511512510513511513513515512513513514514514512511513514507510511513510512513513512512511511514517513511508512512512511510514524515506509512515514513512511514512513511514514513512512514513513512512511512513511511513514511511512515511511510511511511513513511515514514514511511515515514513513511510511512514516513511512511513512512511511511513512512513511511509511510512512512514512513513513514511514513514513513512513514512511511510512511512512512513512512513511512511511512509514511512512514512512512513514511513511511512512511511512513513511512509512512513511513508511514514515513509511512513513511511512513512512511515516511511510511513511511514513510514513512511511512511512511515515512514512508509513515515513513512510510511512511514512509510513515514513512514514511512512512512511512511508511510511513512509512512511515515515510508509510513511511512515516511515513512511514512514512514512512512513511512512510511511510512510510512512511513514511513513514513514513511510510509513513512514514513511512513508510509509513513512513516513512511512511511511516514511512512510512513516515517504509512512513512512515515515512511513510509509511513509514517515509510513513509510508512513513513512511513512513512514513513510513513514511511512513511512510511511510507513508517514514510510518518514510512511513512511510511510511513512511511510512510512511512512512514513515515513510513512510512512513512511513510513510512512513512513511512511510509510514514510512510511511510512516516520517514505508509512517509506513513511509508511513512512513513513512513511514511511511511511512514513513512511509515513512514513513515513513510511511510509509509512514511512515512512510511512515515513512513513511509509511512514514508511511515514515512513512511511512512510507509511511511513511511511511512513513510512513512512512514508511510511515514514514512512512511512511512511509510510512511512511511513512512513511512514511513512513512513512512515513512511510513514512513513513513513513512511512511513510512511513513513511512511511512510512513510508512511512515518513507510517511507511510511513512511514513512513513511513511511509511512512515514512513511513512512511512511513512513512514512511512510512511512515512513512511510510511512512510513514512512513510512512511512511512512513512511511511513511513512509511509512513512513513512516511514513512513512512513510512511514512512509510511514511511511513510512510511511512513515511512511512511512512513513514513514512513512512512512511513512513511512513515512512513512511511511512512511510511509514512512512512512511512512512512512512514513513513511511511511509511513512513511513513513513511512513512512512511511511512511512513514513513513513511513515512513513511512511511509512511512512511511510511513511513513511512512511511510511511512512512513514513512512513512512513512512509510512512514513512511512511512511512512513512513511511510512512511513512511512513512512512511511511513512514511512512511510510512511511513512510512514511512512512512512513511511513513512513513509512511513513515513512511513511512512513512515514512512512510509511512514512513512513512512514513513510512511515511512512512513513514511512512510511512511512511512512512512513512511512511512512512513515513510510512511514513512513511508510509512511510510508509510512511511513517517513515513511513511511513515514512515513510511512513514512513511511512510512511510511512512512513512513511511513512513512513512514514512513511514512512510510516511511511512512512513512512512513508507507513510509514514514516511512514510509512512516515513512512509507508513516511511514515515517515514508507508504510512512511514514513511511513512514515513512515512511511512511510514511515511512513513513511509513511513513513511511513514510510512510512512512510514514510512511512512513515514512512508509509511512511511512510513512509510511513514513513510512517516511511511508506510508504508512510516515513516517513513514511509512511515514512512512512513514513512512511511511509510512513510511510511511513513511513513512513512512514512512512512510512511512512513512513512513512515513510512510510511511512511514511512512512514512510512512513513512512510511511511513512512512510513512514513513512512514510509511511513510512512513511511514514513511512510512513512513512512511511511509513511512512511511513511512511513515513512512511512512511512512511510512511512509512512510511512512512513512512512513511511511514511511511514514513511513511511511511513511511512511514513512512513512512512513511512511512512512512512512513512512511512510511512513513514511512513513514511510508510512515512512510512511515514512514512511512515512510511511512514513513513512512511513512512510511512513512513513512512512511509511511513513515513512514513513514513514512510512512511511511512512512512512512511512512512513511511511511511513513512510511510511512513513512510511513513511513513513513510510511511511512511511511513511512513511513512513511510512514511510511513510510511512513511511511513513511513515514511511513511511510511513512511511512513512511515512515510511511512510511511512511514514512511514511510506508510514514513514514514511511511506507510516518516519520510506510514511510510512510512516515510510510511513512513514511512512515512512513512512511511511511512509511513513511513513512514514513512512511513511511513511511510512512510513512510513512512514514512511512511510511513513509512511513512513510512512513511512511511510512511511511512511514513512513511512512512513511511509510512512511512511512512512511511512512513512512513514514512512512514512512510509511512511512513510509513512514514511512510513514513511511512512511512511512511511514512514512512513512513513512511512512511512511512513513513514511513512511510511510510513513511510511509513511512513512515515515511509510511512515513511507509512512514512512512512513509510512513513509511514511511511513513511516513512510507513515513514513512510509511511514515513510512510510512512512516513513513513513512509508511512511512511512513512513511512512511514513511511513510513512512511511512513514511510513510512511512512514512512512512509510510511511512513513511512511512511512511511510513510511513512511511511515513513515512511515513514513513510511511511511512511512513512512511513513513514513511510513513511510512512511508510512512513514513511512512512512511511512511512513511510510510511512512512513512512513515512511513511511512511511512511512511512513513511513512512511513510512510511512510511510511515510510511511511512513513512512511512512512513513512511512513512514512510512511512513513512512512512511512512513512512511511514513511510510511514513510511511512511511511511512510512512513514515512511511513510511511511511512517514511511515513510512515513511512513512515512513514512513513513510511510511514514512511511514513514514512512514511511511511513511512512514511511513511511510513514515511511512511512511510510509512512510512513512512511515512512513512510512511512512513510511511512511511511511512512510511512511514514510511510513510512510512511512512514511512512512510511512511512514510513512510509513512513513514512513513514510511512511511513512512512512512511512513513512510513513513513513512511512510512515511510511512516512515511510513512514512513511511511508511512513515511513514512513513511510512512512513512512514513512512510510510512514513511510512512512513512512511508511511511511511511509512513512512513513512515512512512514513514512511510510509512511512511514513511512510508509511512512510511513514511511512516513512510512511514513512508510512513508510514515514513511510507508512512516513513513512509510511511511510511511512512512515515513509510512511512511512512512511513512512511513511510511511511510514517515511513510512511512511512512511513512512512509512514511513511512512510512511512513510510509511513512513511510511512515514511509510513513514513513511511516513511512512515515513515510513514513513515517515509511510512512514513509512516514514513513514514512513513513512513514514513512512513513513512511512513515513513512515513512511512513512511512512511513513513512513511512510511511512511512512511512513512513512511512514514514511512513510512511512512513511511513513514513512510511510515515514511508511514511513510512509513515511514513512515511511510512512511512511512513512513513508510513512513512517514512513513511511511512513516513512512509513515512512511512510514511511511511513513511510511510510512512513511512511512510514511511513512512511511512511511511514513512511511512513511512511511508510510510512512513512512511512511512511511513513513511510511511511511512511511510511512513511511511512515513512512513512512512511509512511513513511511513511511513511513512514513509508511513512513511511510511510510512511510512512513514511511511512513512513512512508510514511512513514512511512512513511514512511510511512511511512512511511512511515513514511512513508510513509510508512515515514514512513513512514511510509512512511512512509511512511512512513511511511512514511510512511511511511511511511511512513513511513511511513513514512512509509511510510512511511512512514513512511512513511512510512512512512511512513511511512512511512513512512512511512512512511508512510512514511511513513511510510511511513514513512514513509508513512512511511512515512513511504510517513507510515518517516513511512509510512513512514512513512512512511510508508512511514513512510512512515512511513512511512513512515511512512511508511512513511513513514511511508510514510512513513515507506510510510511513519519512512515518512511512513509508510510508509510509510511511514515513513513510513512515513512512512508510508510511512510512513514515512510512513514510513510511512510511515514516516513512505509512514515516514511512513509506510511515512509512513509512513515515512511511508515518513510508509508507511513515513511513513510511513513511512518514510512512514515509510512512515516515513513512512512513512511511512512512509513512513512512512513512511511513510512511510516515511508509512511513517512511511512514514511505512515518515511509512510511511513509510512512511513512511509511513513513513512512512512510512511510512510509511512513509512511516509508511510510512513512513514516515515515515514508507508506506510512508512519514509509513515518519509508510509516514513513512510511510512513509509508511514513515515515511510513513510510513511511513514512509512514513512513511513512512513512512511510513512511514512514513511510511514512512515515514513511512510511512511510511511512514515512512513511511515515517515506505508508511511511511509511514518516515515513510507510512512512512509511512514512512510511512513512509509510512511509509510513513515517517512512512513509508509510510512512512513515513513510512513515513511511513509510512513514515512513513509510514512511515515510508512512508510509511513513511511514511512513512514513511512511511513512514514513513511512514513513511511511513511511511513511512512513512513511512513511511511511511510512511512513512512513512511511512513512511511512512511512511513511513513512511513511512511513512512511512512511510512511511509510510512515512512514512511512513514512511512512513512512513514513510513512512512511512510512512513512512512510511513513512513510512511512513514514512511512509510513510511511513513512511513512512510513513510510510512513511511513513511514509509512512512513514513511514510510510510513512512510511512515513513513512512512515512514514511511512511513511511511513511511513514512513513513513512508509513515514513511512512510512512513517519511510513511510511515513511511511511512513512513512512513512514514515512511511510510511511512512511511511512513511512512512513513511512513511512511512512511511511510510510512512511513512512513511508512513512513513512512508513513511512511510512510511512515515512513513516512508510508515515515513514512510510510513524516515511505505508510516515516509510513513512515513507505512513515516514515516513512513511508510512508509513518514513511512508509511513513511511508514514513512512511513511513513513512515511511511515511509513511510513511508508511508507509519515512511515521518519510505508507503508514518511521524516506510517512504507511510506510514514508509515513513511512513514513514515512512510511511509508513512511511512513519513510513512508510510512511512511511514512515514512514513511511513513511507508513512512511512511508513514513513511511508511515511512513512512510511513515515513508508505508513517514512513512509512508517516513510512514517511510510513515514516516515511508509510510511514506507511514519513510509512512511515515512510511513513510512511514511511510509511513515521513508507509509510514513512514513512514517514515516513509509512513508508512514513514512512508511511513514514513512513515511511514513512512506508512514518512509511513512512507511514514514512513513514513511511514509512512513513513514511506514514513511514513508509511509510516514508512513510514515514512514514511509510512510514508508511512510512518516513513510512510512511510511509512512512512511513511515517512515512507510512511510510508509515514512515512511512515512508510513513515514509510513514510512511515512510510510514514515512508510513513514515515513510508509513512510511511512513512516514513511510514510512511510511512518510509511507511512510511511511513514516514515513515516511510515510504508507510513513511510510516510508515517513511512512514511512514518516508510511513511510512512514513513515507505505512514515513515511507507512510512515509513511510513511512512513512512511510513516512511513511514515518516511511508511512514511511512512514512511513513511513512511511512512509511512511510515514515513514514508509512516510509502511511512511510508511515515512517515514514514516512512508510512512511508512511515513512510508512515511510514511508513515515514510506509512518515513514513507505510512511510515515509505511511510517517511511513512514513512515516513512514514512512511510510512510512511513514514511506508510512513517515512514514507510513509511511511512511514513512510514512509511511513511509515512509511512510510515515516513508512519517512510510513510510512512512512512510509508510513514512513512513512511512516510510509512512513513512511512512514512514512510509511514513512510509513510516512511506511511510512516515518513512512514516514510507504510511509517513515512513513511509509513512515512510509510513512511511512512512512513514514516512512510510512510510510510512512510512513511511511513512512512512512511512512509512512512512511514512513513511515511513513512511511512512510511512510512513513512510511511514512512510512512512512514512512511511512513513511511514511511513514512510515512510511507512513516512514513513512512511513512512512511512513512512511512511513512514513510511511512511510510509511511512511512510510509513513511513512512513511511511512512511511512511511511512513513512510511511512508508515512512514511507512516509510516509513510510515519516509508505508514511515518514509508510510512513512515515511510513512513512514512510512510509511510512512514514513512512512513513513511512512511512511511513512510512513512513512513511512512515510511508513514512512512509510510511510512513513513514513514511512510512511512511512511513510511511512513512511512512513512514510511511510513512513515514513513513507510511513513512512511511513512512511512510512510512512513512512513511511513509513513512511513510513511513513511513515514511511511511511511512510516512513511511511512511515511508508511512513517513512510508511507513513513512514512513512515515509510510507508511511511513512513512511511512513515511509510510513512513516516510512514514512509513512513513515511511511511511512511511511513511512511511512510506514513512511512513515512512507508512513511509513512510510511512513512512515515513512514512514513514512512513515511511512515512512512513511514513514511512512512511512513512513512509512511513513511510511511512513515512512511510511511509511510510512512512515512508511516513511509511509513511511516510507518514520516514512510504506508513512512513512513515513513512514513511513514513511514513513515512512510511513511512512511513511512512512511515513512511512512512514512511512514511512511510513512515514512511512512512508511513515511512513514514512511510509509511512513512513513513513513509510510511511509513513515515512511511507512514516517517512507506508511510511508515513512511512513514514511512510513512510511512511511511514512512512513514516515511512511508512511512513507508510515512511516512513514513513512512512511511512513515514510509510511511510515512508509515516510508506511513514515511509510510510513513515517516516517515513512510515512513513514512513513511515515511509511508506512513513512510511517515511510516512511510504507505508508513512517514514515514513510510508510515517512509513515512513515513512511510514513512512512513513510511512513510511512512510513511512512510510512513511512511512513510508510509509511516512511511511516516509509512512512513512513512512511511512513512511511508512512516513512512513512511513513514512511511511513512510509511512512514520519512504508510512513517513513514512512510508511510511511510511510514512511512511512512515512514513513512512511512512511513513510512512512515512511512512513512511513510511510512512511510512512512511511512513512512513510512511511510510513512511511513513512514513513512512513514512511510511509510512512512512514515512513513512511512511513512511510512511514513513511510510511512513511512512510512512513514514511511510512511511511511508511513513512513515512514514515512511513512512513512513512513514513510512513512511511511511509510511510510513513515510512513515511511510513512512512513514509509508510513511513510515514514513512512509513513511512514515514514510509508508506510513511515515510511514518518513512514516514511511514510510510508512510510511512511512512513511512513512514513513512512513512513510512511511513513511513511511512512511511511507508513512512513514514512513512511512512510512513512512510510510512511513512511514512512512511511509512509512511512511512515514511514513512513512512511513515511510511513511511511510512512512512511510511514514514515513511513508510511510509511511512512513510511513512512513513513512512513513513513512512512514512512514513515513510515511511511512512511512511511511510511512511512512512515513511511512512514511511513512510511514515512515511512511512515511511509510513511512514512515511511508511515513512511511512511512513512512511512515511514511513511510509510512511510514511511514513512511512514512511511512512511511511510511513512510511510510511510511512513514512511508510519515513517515516515512509506510508512511519520516507512513512511511511512510510511511512513511511513512513511511512510511513512515512516510509511512512515512514510512513512514513512511511514511510511511513511510512513512514511512515515512511511511513513513511515516510512512509511510507511514510513510512514511512514512513515515512509510512512510510512513508511513516517516512509507506512514507506511516513511511509511513513515516516513511512512512512511512509511511515513512513513511510513510512512510510512512511510512514513513511513512513512509510512511511512517512512511510515515511511513513513516512509513513511511514513509512510511511511511510511512512514515518522512505507507512513511513515514509508508513512510510511508512518520515512513510512509512512512511511512513512512514514513513514511511513513513513511511511511511512513514512512514511512513514512513511508510512511512510513512511512512515514514516515512508515510512511512512513513511511512511513512515508508511512512514515513512512510509512511511514513511508511513511514511510515514512510512511510512514512512511513509509511512514513513512512512512512510512514515512512514514512511513511510512510513515511508509513512510512513516515512513513515513513509511508510512510512511510513512511513512513513518515513514512511513512514510513511511511514514511509511511512512512508513512508507513511513517514513515515513507507520518514514515513512505509504504511515512512515519509505507510509514513514512512512511513511513515513512511512512512512514514512510513514511512512513511511512511511511511512512513511512515514512513512510507509513511512510510508512514513510510516517515513511510514511512513514511514509507509513512513508509512515511511511511508511513516516510513510514518516514514512511512512512512512510508510510511512511510512514512515513515512513514513514513510510511511512512512512512513511512511512511511513512511508510512513512511510512513513513514514513512512513511511510512510512510512511510510512512513513511513516514512511513513515514511510510513514509511510509508510512511510512514513513512512512513513513513512511510513513511511511513512512512511511512512508510512510512514513513512514512513512514511513513512510513512511512513515514513513510512511508511514511509511512512512513514511512513512511510511513513515514513511512513512512512512511511511510511512513513512511513512514511514511512511512510511511511508511512514512513512513515515512512511510510511512512512512511511512512513514516515515511511513512514514515512509505508510507507509508517511513519519517513511511511511511511512512508509512513514511511513512513511510508511513515512511513508508512512512511512513513511514512513510513514515514512508508510511508512512512513511511512511515512511511511511513512511511514513510512511512512513513512511511513512514513512511510511513511509511514511512510515515513518512511512511511512510510511511512513513512515514512512513511513510512512512511511508512511511510512513512513515514512511512510512511510511511511509510513513511512514515514514513513512511513512512513513513519513511510511506507508507510511518519517513509515514512513510510512508509513511511511512513511512511511513512512510510512512513512513511510510512513514513513509511513512511511512514514511512512509511511513512511512514511511515519513510512512499510519513510511513515519514508508509510512511507512514516513515510511510512515514511510515513512512511510510509511513513514512514512512512512515511510512511513512512513512511512513513513514513510510507511518514513513512511513511510511512512511512511512513510512513512511512511510511511512511511510511515512513513514513511512511511513512511511511512512511514511513511512512512510513511512512511510512511510511512513513512509513513511512515513513512513512512512514511508510514511512512511510512514514513513517512510510513508508511513507509512513510511513513514513512512512511511514513512511510516511513514517510510509507510515515511510510512512512511513513515513513514514512514513511513513510511512511512510512512512511512513513513512511511513512511509510513510510513512510511513511512511515511512513510511509510511510514515513515514515515509507505508513517514511512514512513510512514511513512511513512512510512515505508510508512512513511517514511509510510512512515515514513514514513513510507513510511513518511512510510512512509512512508513515512511513514511511507510512514511512511512512512514514513507508508510514512513514513512512511511511511513513513512512512513512511514512512511511511512511512513512512512512512513512512512510512513513514511508511509510512512510511511514514513513512511514512513512511511511512511511513511515512514513513513513512512510511510511511510512512512511510513512513513512511512511511511511512511511512514513511511509511512512513511512513513511512512512512511512513512511514512511511510513511511512511511509511512512512513513513512513512511511512514512513512511510513512513512509512512511513513513511513512513513513511511511510511511512512512512514512512512512512511513512513511511511511511511512511512512512511512513514511512513513512512511511512512509511512511512513511513513512513512512511512511511511513512511510512512512515512513512513512511510513512512511514512511513512513513510512513512512513510513511514514510510511510511512511511512513513511513513512511512513512515513512512510512510512513512511511512511511512512513513512513511510513512512512512511511512511511512513512511511511510512511510514512512511511513511513515513512511512511513515513511512512511512511512514512512513513512513514511512511513513511513512513511512511509511512512512511513511512512515513513512511511512513512512511512511512511512513512512514514515512510511511513509511511512511511511511511513511514512512512513514513511512514514512512513512512513512515512510511515513513512510510513511512511512511512513511510513512514512512512512511512510512511510510510511512511512513512512514512515513513511511512513511511509511512512513512511515512513511512511511513511513514511511512510511512512513511513513513513515516510511507507511517516513512511511511511512512512514512514513514513515512511509510511511512511513513512512512513512513512512511511511512511511509513511513510512516515512513508509509509513513511513512510512511510512510513513511511512511514512510507511508513517515509504512515519513512512513512513513517512512511510511510511512515513510511512511511512513515517515511512512511511511512510510510512511512513513511510512513515515515510510511509511512512514511513513512513513513509513513511512510511510511511511512514512512514513513514513511511515512508511510512512509505504505512513515517517515516513512513512512510511512510512512511512512513514511511512513513511512512512512510510510511512512511510511511510513512513512514513512511508510515516516518515511509510511518515511508508509509511511510512512513513515514512510512510511512512513513511512515512512512511510511511510512515513512512511511512511511510512510512513512512511511511511512511513512515514513512513514513511511511512512511511512513513512512510509511511512515514513512513512511512510511510512512512512512511512511511513515511513511512512511512512511511511512512512514515515512513513511511510511511511511511511511513512513512513512511512511512512512510512511509512511511511509512512511513512512513513512513511510510513511512511512513512512513514514512513510511513513514511511512511511511512514514511512513509512512512514512512511511512512509511511511512512513511510511513513511511513512512511512514510511511512513511514515513515511505502510513513513511508512514514514513511513512511512512516516512513515512511511508511512513515512512513512515512512513511513512512512511512511510511508510512512512512512511514511511514513513511512511512510509510508511511514516512511510510516514513515512511507507510509512513511513514514514516511512509508514515512515514507509510510508508514514514516515512509513514512511512512512514512510509512511510510512512511517512512512511513513513514512515513511510511510515513513511513513512507511513507509514510508510515512511510511510512512513512517514514514513512512512514511512508511509513512513510513512514513512512513511511511513510509511512512511512512511513512513512512511509511515512514511511510512513513512510507510512513513512511512512512510510509511511515514512513512511510513514511511512513513510512511510511511511512513512512511509513510509511512512510513509513516518516516513511505508511515511512514515515510510515515508509509510512514510509510516518512507509511514520513508511513512512508508507513512513513510512513513513512513510512513512511511513512513512513512513513513512512511512512512510511514512512510512514512512513512514512513510510512512512514511511511511511511513512511512511511512514510512512513515511512512511512510514515513512513509503511510513511508511510509510515514512515509514513512512515516513516513513512510510509511512510510513511513512510512513512512511511511512514512512510513513511511512511511513514513512514512512510512511512512511513512509509512512515513513513513513511512511511512512512510511512512510513513513514516513511513512510511512512511513513514512512511510509512511510511513512514515512511510507513512513511513512511512511511511509518510510513513513512512513510513513513513513513513512512511510511511512515513512510510512513511511510510509511513513515516513512512516511510512510511514511510508510512513513511511514512515514509511510511511511513513512513513512512513511511511512513511512511510511511510513510512511514515511510514512515515510511514511511508508510515516510513515512510513509510513512515516517505506510506509511507512512513515519521513512512510511508511514513514515511512510511511509511510511512512513512513512512512515512512512511511512512512512512514514513511513513512512513512511512512513511510511512510509517514512512510510510511513517511513508510509509509509512516513511512515516510508505509512518516518512504509512517515513511512510505509516512511513511510511511511511512512514512512511511511514513512512511512514513511508511511513511510516514510512510515513511511512512511510511508511512510513512512512515513505511514518512511513512508512512511513511511511510512513512511512512513512513513510511511511511512513511511513513513513513513511513512512511511512513510511511511512513514513511512513511514513511512511511511512514512510512513512512511512511512513513512512512515511512511511512511510511511512511513512512513513513513512512511510511513511510513513513511512510513512513512512512512512512511512510510512511511510511513514515512511511512512513512511513510510510510511511513516515510512510511513513511510511515513512511515510509510514513511515515511509508513514513516513514514511512511510513512515512513511511511510512511513512510510514512513511512510511513512513513513512512511512512512511512511511513512513512512511511515515511512514512511511511511510510510512510512514514510512513514514513512511511511513512511511511512511511510512512513511512513510510511512512515510512518515513513511510512512509509509511514514514512511513513511511512512511513514513511511512511512512511512512511511512510511512512513512511511512512512511514512512511512511510511512510511511513511511511511514512513513514512512512514513510513513510512511512510511514514512512511510510512511512512512511512511511510512511513513509513513512512513514516511513512512510510511512511511513513512512512511513511513513511513513512512512512512513512513511514511511513510512515512511510510514512511512515513512514515511512507508514514517515510510512512512513512510510511512512511512511511515512511512513512513512512512512510512511511511512512513514512507512512515513511511511512511512511510513513511511513511514512513512512512510512511511512511512512512513512512515512513510512512512511512510512513513510512510511510512513512510512512511512512513511512512513512511511512512511512511512512513511511512512512511511512512514512511513513512512512513511514512512511512513512511512512513510511511512512511512513512512513511512511513513510511512513512512511511512513514512513512512513510513511512510512512513512512509511512512514514512513512513510510512511511508511512512511510512514513513512511513513511511511511512513509510513513511512512513514512511512512512512511512511511511512511512512514512515512512510512512513511512513511511513511512511509512511512512511512513511513513513516511512512513510509512511511511511512513511513513512513513513512512511512513513510512512512511512512514511513512515512512511514513511512512509512510511511512513514511512512513512515513511509511511511512511510512511513513513515513511511513513511513512511512512510512511511512512511512513511510511512513513510513511511511514511508511511513511514513514513512512514511512510512511509512512511512509512511512512512512511511512511514512512511511513512512511512513514512512511511512512511511512512513511510510512512511511512512512513513512513512513512512513511512511511511511512512513513515513514510511510512511511512512512513513509509511509512512515515513513513512515512513512512513514512513511510512507511511512510514512511512510512511512513513513513512512512513512510512512510514515515513512511512513512511509510511512510514515511511513515510512509510513514509510511513513513515512507511513515515515512513512512510510510511508510511512511513511513511512510512513515512515512512507508510512511512511512512514512512511512512515513512511511513512511511510511508512512510511514513511511513514512513511511510511510512515511513512512511510511510511513513512512512514512511512513511511512510511510512513514513511511512510510510512513513513512512514513514512512511514514513514512512510514511510512512512510511511512510511512514512513514513513512512510510512513513510511510512512513513513514514512511510510510512512513512511513512511511513512513512512511511512511512512513512512511511512513511512511512511514513511511511512512513508512509510513512514511510514512511512516513513515516514511509508513510507508511514512512511514520518516515514512508508505508510507511512513514520515511509513509508511513513513513515514516512513514512511511509512514512510513515509509509512512512512512511511512512511512513512512511512510510511510510511513514512512511513513513512512512514507511512512512511509512513516511513512513511510513512511511510512513511513513512511510512511512512514514514513513513513513508511509511511511512513511512511513512512512512513512513512512512511513513512512511512510512511510512512512513515514513511513512512511510511513510511511510512513512510511512511511512509510512511511512512512511512512511512512511512512512512513512510513511511511511512512508508513512512512512512511513513515512511511511509507512514513512513513513513513513515516511511512511511508510511514519517517513510511507509512515513509512510510508507513515519512512511512512516513507507507511511515514515516514514510510511512510512511513513511511512513512514512510511510512509514512513511511513514511510510511515511516516511509510510507505508512512512514514515513512512513513513513513510504510512512513512515514513508508512511510512513512514514513513513512511511510509511509509513511512511511508508511514512515514511506508510508510512512511513513512510510512511511513511511511512509512512512510513514512513514509510510511512512511510511511511515514515513512512512511513510512511511511511511512511510510511509511510511511514516511507514516515512512513511506510513509505510507511513512514512510511509512510514516516513512511508511515513514512511513509507512512513513514511510511511511512511512513513512512512512513511513512512512512513512511511511511511512511511513512511511513511518514507508511509512511513515513512513511512512513512515514513512513512511511513512513515513514514516514513515511512510514512511513510514513513515511513515512512511512512511511512511513513512511512512512513513515514512510512511511511514513513512512510514513512513514512511513512512512512512513510509511511512511511511510511512513517514512511514513513511511509509510512513512511510511511512513512514511513512513514513512512511511510511513513512512512514513513513514513513515515516514512512511510511511512513512513513512513512512515514512511509511506508510510511509511511513512511512511512513512511511512512513511510513513511513514516516513514513512513510508509512514517511511506507504511515514513522513502505510513513513512516512508509511511510511510512511512512511509511513513512512512512512510511512512514514513513513511511513513512513513511512512509511513510511512513513513512512512508513516517514512512511510509510512515515515512512515513513512512510513511510512511512511512512511511512513511510511512513513511512510510510511509510511513511511511513512512514511512511511512511512511513511511511511513513511512510512512511512514511512513514512510509510514512508507511510512514517515508512512515515514513509512513512511512513511512514513512512513514511511513511511509511513509511511512511511515512511511511512510511509510512511512511512513513512513512513511512514513514514513511511512512512512511511511511512514513512512513515512513513512512511511513511509512512511512511510511510513512513512512511512511512512511511512510510512512511512510512511512512513512513512513511511513513512511512513513513512512511512512512512511507510511514511514511514513510510512508512512513510512511511512513512514515513511515513512511510511511509513512511510511513513511514512511511510511512513513513513513513512512513513512513510513513512511508512512510510511512513512512512510511513513510511512513514515512513513512510512512512513512510513512511512512512512512513512512513513512510514514512512510512511513511509511511513510510513512512512511513514513511510510511513513513510512512512512513512512513513511510510511511509511512513513513513512512514511512512512514511514513513512511511510512512509509511512509512512512511512509511511515513513515512507510510507508516515513511512511510513512512515513514512511513511510511511511509511513512515513512512511513512514511511512511511511511514513515513514512513513515513513511513510510512511511511512512512512507511515513513513511512511511512512515513511512513513515516510512512511507510515508511511512512512512512515512512513514511515511513512512510511513514512515512510512513511512513513512511511511512512510513509511509511509510510512514513514514513514511512510511510513514512512514515510511509510512514514513511511510512512513512510511512512513512511510511513512513514514513513515514511512511512512512512512511512512514514510510512512510512513512512512513514512510512506505514514513517517512510510512509509508513517514511511515516510509511506509510512514513514513514515512513512515514513511514513512513513511511511513513512512514511512512512510511511510511512512510512513510512513512512511511512512511509509511511511513511511512513513515511512512512512511512510512513513512511511513516515513512511508508508512509512518515512510510510510511513515513513514511511511514513512508510510510510510512513515513512514516518514513514509512510509511510511510509510512516515513513513519519512517510506508512513513510513512512511511512513511513513513514511511511510514514511509511513512512514513513511511512512513512509511510512511515512513512513511513511511509510515515511514513515512510511513513511513511510511512514514513512512510510512512512510511511510509511511511512515514511511510511511511508509507511515516512518516516515511513517514512510514510505508512510509510509512515516515519511507509512512513514512510510510508508510511513511511510510511511512512511512509513513511513512512513514512514512512513515512513511511512514513514511514512511511513512511509511511512514515515513511513513512512512511512511513514513515516513509512510513511513512514515511511510513510511511513513511511513511514514514513512512513512512512511512512511513510512513513512511510509510511510510511511511512515515510514512513514512512512511511510511512515516512511509511515512509508510510508512512511512512513513513512512511510509513510507512510510513514514513512512513511511511511512511513513513513512512514