509515521516516511512507507512503504515519517513514513515521514511508500499510520520512515516514513508505512513510515515514512508511510507510514516515515511512512512514515513506504501490509536527517525518512513510503503507513513515515513510511509507509510515521518512512514509507507509518519513510508519520511506508511511507510514518515512510512506510517518516514519515519524503494492500511508511519519513513518512514511510511514510511519519515508511511512513512511512512511512513512511513511511511515511506512511512511514513509514517517516516503507505510507512519518517511508513512505505515520520517510510511511512508511513512511511516514511513510513510508511508514513515514511511511511510510508509507513519521515514515513510510511508499518527518509503506509513513511509510512511524523511500510519516513514510507508516516513519518514510501509513514511509511509508508510515523518516512509511512513512511511506508510507512511513516518515512509511507512513518518515513507504508510513510514519512506519518509509519513513510504508513512514512516515511506508513509509512513511506509507516523517512514513514512511508515510510513508509513511509507508510515518520518516510508508508511514517512513514512511514513513507507515505506513513509512515516519519516515510509514511512511511512511511511515513511516515511509511513514519511505511507506516517510509510513513517511510511512514511511512512508514515514509519514508509516512503516518513512510510515515508503505515515515512512511509511513515513510516512508508509511512511510513513511511514515512512512515511511512510513512515509512517509507506510517519515507509515515514514511510511512509511514510510512512510508513514516516515512511509509511511508510511511519521512511509512512511512511513510510511513512511512512508511518517512514513512511511507511515517511512513510510511511515516512512512513509510513512513510511512509511512512514512511511510514516515515514513513507505512513512517511510512510512513512513514511510509513515517513513510510511511508513511513511512511510511515512514512514513510511513515511504513509513513513517511508512511513510509512518515510513516512511513512513513512512512511510513516517518511509505504509506513514512508508516519521520529511500498506509512513515513512511509509514510517510513515512511511512510512513510517518509513513515512513511511512511513512511513513512510512512510511512512513511512511511514518515512511510509508517515512512511512513512513509511514511510511516512511506507507518513515521517511511501510516516511516510509511520517508513516508502500510514518520513516512506511515503509520515519517508504510511511506511518512513509510512512515512515510510511509512513515512513513515511512513512512511510512512511511509510509511517515511511512513511512513512516514513513514511508512513512511512513513510511515516510510507499512524527511509509511509509511511513512514512512510511511513514513513510511511513514513507509516514516517516510510511509507511510510513515517513511506509509512513512511515513516514512514511511511511515512513509512511511513517520521510500508513511513514508508512508509512510511513511512511510513519517513513511511512513511512508510513511512511512513511515513514511510510513513510513510508506512510506510519517519518513512508512508511512512512514513512511515516514514514513512509508511507512514515511511507506512513514514513516516517512509506500510525521515512510509511513510511510510512511514512513514512513510513514512512513512507513518514504511515513513512512507514516510512512514512511512514512512514515506506513513514514516514508507508512512514514513512514511513510515519514515515504507508508507508511510513516515514514508504512520521514511513514514509507512507508512511511519520517513513513511512510508510510516516514511509506496509519513514513513514515513511512511512511510513515509510508506504510520523517518513507508511510512512511511513513514513514513512511513514514512510509511511512512509513512510511512513512511513511513515513512512515512511507516516519513512512511504509512508512512515518517514511511510508512515516514512512512510512514515515513513513513512508509511512511512512510509509511512521514509511514516511513511510509510511514510509512520521518514515511501509507507511514514512511517513513511511511512513512516513513510510512510511509511513513511511512513514512514513514514512512512511513510510512512510509510511513512512513514512514514515511512513512504511511510513513511513515513509504517515508517513512513509512510511511509510510514517517513509513513512514514514510510509508513515515512514513509511510507508511514521514516512508511510514512509509510513511510511511512518518507517518515512508509510507509505510511511518518513515515512513515513514513511512511510508505507510511508512520516516514513510515511507513512508512511512511513512510512514516517513512514512511509511511511512512511511511509509509509509516515518519522516511517510508509510511510512513512503507513518512513513512511512513512514513517511502504507515522524517516509508507511512511511513511510511509514513513511512504514522513510504510515512510511512512510506513512511513515519515520518513507505509511508511512511511513512514515515513513510508505508512517520517512513509508511515513514512511513513515514513512508511513510510507508512514517526522511510511504508511511511512512508510514519519517501507508512514513511514508508514514516517515512513508513511505508510511512512511507511515514519520515512511510511516508504508510517519512511512513514511512514506502512519519514512511510514512511507511515510511513513514512510506508511512516508507513515515512510510511511514515517516512507513512503505510513514515521522516515512505509511513515509508511509510512512511513515513511512508513515513515520513508511513507510510513513512509508510512510509515518513508512513510510510515512512518514515513513512515510511512508507511514510512512515512512514512514512510514514510513512511507518517512507507510518524517510506512511509513515515508512510510510507512512509515515512510509512513518516514514508509511511512510512516511512513518511510516516511512514512507512509511511510515516508509513514516513506506507515516518513512511515513513510511511512511511511512511512512513516514509511511514512512512511509508514511511512513510510513513515513515508510510511513515519519517515499499502510515511510520520515511510510513518512509507499509515519517519519513513519514504508512508510513513515511509509505510511511514515511511512516515511509510514513512511511508514518510512514516518512510511512514511510508507507511515516513514514511511510509517521513510508509508512515516509506519510509510515513511511514515511515517515509510508508510512511507513515512514515515511512508510507510515519515519521513507504506511514510516511511513512512515514510511511511511511512510512512512511511515513508516515515516517515507502512512516517513507499506511514512515515515515510511512511513514512513511514511511511511513514514512511512510511515514515509512509504507509512516512507510514522522524510510513510502509511515512511510508515516516514514512509511510511511512512508507514514510513516513514515516513509512514510510512510509512511512513513512516513510514514513515517513508512513510511515511510508510514514511512515514515518516514512509508509507510513511511513510511514515515514511512508507508510509511513512512512509511512515513513511513510512512510511510515520517509507509508511507514524517514512512509511509510511511513511508511511511513513513515514513513511510512513512511511512512510512516514511511513512513512513516514516517514510512509509512511511508512511508512514510511516517509508510510512515515517514515512511509508510512514515513513510512511513512509508511512513514513510509506508511518518515515522515511509511508509511513513511509511512516515512508511508511510512512513511508509513516520520516509511509515512512511512510509511510512513511510511512515513513512511514515514511511508509513515508508508510517513511513511514518518513513512505507507511512513508509512518516511513516513509512510512516514511512511510513511510512512515513513513511514513513513512514508511513508513512512510510513512512515515513512512512513512510510510509511513512512514513512514512511511515513513511506507512513511511512510511515515513514512511515517512512512512511511512510511511511512512512511511511511514515512515514511512514505507510508511515516512507512509510510513524520515514518504502508512514520521507506511513519510510514515511508508512505508519517516509511510510514513516514515513510513513511510511512510513509505507511513515517517513509508508513519513513510507499515516512518518508507514511513517527522514504504508521511505505508508510516511508513515519520511509511513519514504507506508515515517510515515503512519517511511511508510509511510513511514515514515514508500510518517511514507505511513512512509511511513515512515514512509510516510509518515513509512516519510511512507511513512511516517508513509508511509509512512513513514510511512513511516513504507513518517517513514510505504507509514509515521519513514511512515499504514514518515516513512511511512515512511510518517512508500509511509513510514511506516511513509513514520526516514513517516511509504501511502510514513511510512512510510513512512512519520510507511507510510511504508509514517522519520528521513509502505510512512513509502500515510513517512511513515515511509508515512509511520521520511508509511513513511511511513513514517511507515513513510508509506511514514513514513509512511515515512512514518512507505505511511516523518508505511512510514517509513510511512514516515510502508506516516515521520515515508501506509510513516515515514512510511513513512514517512509512510512512510515518512513515505510508508510511513509508512511516513516510513524517509516513506510505509509515512510511514511511515513514511511510513510509510509510510511512514521518513510510512511514514510509507507511518514515520510514521513499503507514512512510510515512514515516515510506515510509511509513513514505512512511506512522509503513509518524518515508508510509511511512516515510508511513516515514514517515506509511511512509510511515513515514515508508515512511511508512509512515516518517511511510513510509508515514513511505501511518536525498504503504509516522512509504513511512523521511508510507511507510521526521508504497504508508511529520513520515512513515510508505506510523519516519512503505509508512518516508511511510510514512511508511517511513513508513512508511516513515513514512512509508508512519518514513514511510512510510515513513512517517509506507507501504518524516507511512513516512521519512508506511513508513511512514518511511513510509512513512508510512511508512511510519516516514513512512509511510509509509512514512513513511512513511511511515514512507513509511516511505509513509515513514516519514511511507512515504504515516523517506504510507512510519516514510511511515511511515510510510510512510509508512513514519521513504512517514509510511510511506512511516511504505512512515526524518514512512510510511508508502514518517514515512505504509513513515513506508513508514520512514514514511513514511511509510509511515514519510502505510511514513512512511511513513512517520517515508504510519518510511509512512512514511512514515515518513509506513516512504507510507512518515515515513514503506508508508512519516518518511509511510508511509505508512518515518520512505509508522514511511511507507512519517516512509510508514514515514513514511511509510513513511507512513510511512517517512508513514512509509511513512511507510511513511510518522519514512511509511510511515511510506509509516518513514512510512512512509510512512512514511509506509510515517516520512510512514515510511511508514517512506511512517518511508506509515512509511511510511508515513508515513515513512510510508510513512514514518512509509505511510512515518515512511509514515513514515510508518517508524520509509505507512510511512511511509510510516519514510510519515511512508508510509511511513512514513514513511511510509508511511510512510512513512512514513514514511513514512511513511511511513512510509513514512511518517512511512517516513512515513508508510513509510513504505512508510513513515516511512507508510515514512513510515511512511512519513510512511510512513511507513514514515516515514511506513515512509509510513511511515514512515511512512512513511516517511510512510509512511514510511512511510512512511508508511511517515519516518510511509508509513512512511510513508510514514512513513513512513511511511509509512513514511512512513514513513513510514510511511512512514516514513512508509513512510512512512511514513508512513508511511505506515512515520516506511511509510511511511506508519522513505519519514512513508506505510513514513508510516513508515524513509511515512506505508514525521515514513513509512510505504510509511513515513511513516512515515513511509514507506514512514514512510514511510510512510510513514514515513512509512513515512513511513513513513515513512513508510512514511505507505512515511512515516517516513512510512511512510513512511510511515513512510511511515515517517513508510510510509509514511505513514512511515515513514514513513511509516511506511516509513509508513516512511515512512512512512511511513517511513510506510510510513513512513516517513511511515510506507508514512515516513514513515511510511512514512512514511512511512510508508513515517515519512508510511511512509508510512513516516509505507513510510517521512513513510511515512508507512518515512516515507503506508508514518514519509510508510518515514517515512511508511510507508514519514510506515518515513510509513511515507508511510513512511514512514517511509511511509512513511511513513513515513513512512513512512512513511511510513511512511511512514511512512515515510512510510512513510510511512512519515508507504506511517515510510511515515512511514512513512511511510513512511513513514510513514513511511511504507512515510511517508508515511512514516516514515511506511514512510511507507499512523519515515512513517508508510510508508510511513513516516512508510511511514514515514515512512512510511511509511514513514512514510513514512513515510508510509508512518518515511506515514511511514517511512516515506508507506507509512519514513519513504508515516512508510512513511513512514509510513513509516517515511509513516510513515515512515509511515511511507511512510512505511511513525515513509508508510509507510515509508510510514517519521507509517514517521511510504508513513510508512512509506511511510510519519518515511510515511505506505509515512515515516514511511517519513509508507508512512515516515512509508502506515517515526518510510508507509522522507508505511511514508512513511511506512513510512516512515514513505513515512513517513510511511512509514511516516511511512510511509511507516515513512512513512513513514512514508508503502506512521515513516514511514515514513510507509519515511508512510512511512513513510510512513511515517514511508507504504510517517517516519515513510509516515511508510512513511514504510512511512513511513514514512514515510512513509509510512511510509506511518517514513511508508512514510510516512510512517511507510506508514517515517518512511509517515513508507512515516511509508511511509519516510512512514516516510504510515511511526520508508511513512511511512511511510511511511511511512512513515515515515510507511510510515513515511508510512515518516523513509510513511512515511508509505512519516508511512516512507509511512515514507510506512517511508511513510509506512515506505511518515515520522513511509511512510511510510512512511513510511507508510519517517514511511513510513509504509511520519515513510511509510515515511513518514511514508510507502515515512514518514507513512506508514514513512509510512513510509511511512513517512510511519516517514510510514508507510512511511510512515521518513512508501511515511515514511512511511513512511512511512510515519514510509508512517515510511514511512510507513511511513511511511511512511508504515514512514516516513509511511512512512512515512512510510510513509508512512511512510514512515517513514516515510508507509511513515513512513511509512512511510512514515515514511509510511510510510512511511511512513517512514512514511512509510511512510512511510512513513515512517512504502511511516519512516516513512512504506509512513516511515515512511510511511513514511512504505518517510516521512515514514512512506504508512511509512514516509512512511508515515516510510513512515510510508519518515513506510512514510513511512514514511512512513512511510508511512513512511511513512516519519511513510507502510513510512511512511511513513516520512513512511513509509509511511515513515512514512511510512510512512513512514513513512510511510512508509515514506512511511512512510508512515515515517514512515517514510508511517511503512512510513515519515510511511511510509510508510512515516519515510512507508513514509505510516512511512509515513510510511512513516516513511511509509513512509516516511512514510511511512511510510512517514509513511508510513514514511508508513512515513513515515515511511511511510508511510511511512515512511512511511514516518512501504512507513519515511514518514509511511511518518511508509508514516512508511512510506511510511512514510517517511513511510510517514508509512512513515513511509512513511509511514520518515519511512509511510513515512509507513513509508512512513518516510504501512513513516511515512509515516514511510506506518516518518505502511510513513514513515515512511510513518516513508511508508508507512520518515516515512506509514512511512516512513510504508511510513514512510511511512512514515515518512505505512510505511521513510510518518514512513506507511511510509508515519514514515513510506505504509518516526521513503506514510512509507514514518514511506505513514517515514506509510508511511513515511508510511510513513518516520513507510511511508508512512515517518505506515509506513515516515513511510508508509510518518515517518512512512510515511507511514517514508510512513508502506509518519516513508515515517513508503503505508517519513518512517514509514514515511511512507498509515515513516516513513510518519512514513512506505509518516511510511507509514512513512511515511511511504509511513517513515514511513510507512514514510507508511516512513509510514518518511517515510511510505508505509515526518508506508515517515519514510507504510514510504509515512513514513513512507516512516513514512512512509512510511512512513512513514512510514514512511510512514514507514512509510512509511511509513523518514510508508512510510513516519516515511504512514506512510510514512510512510509508512511510513510515522518516509505509510509515516515513512511508511508511510512515515512512515512515511512511510512508509506506512521520513510512514508505512519520513515511514517509506507516510511512511512514511508513513508506509518517521508507512522511501509513512512509509513513514513512510512512514515512512508511509507512515513525519515515511510511508510516512508511514512515517511511508514512510504511512513511507514514514517517512503504513516518511515514507511511507510511515510510512514513513512508513511509511518515515511509512508507513510513518519511514511505505516519516514515511511512512512515513509508503508513515521521510509510509511512511509504511512509515512511513516519514515506511514519516510505510510510509512513512512511512514513519513515516513511509509505509514517514509511509511512511514516513512514512511513514508502507513513513514513514513514515515507508512515515514509511515513510507502507511511516515514510513519514513511511508507507508514515515516514515517512513515515513511505511513510511508512511514513513514513511513515511507507516515513519513508509509505513513513518514515511514512515516517499497499497522527515509519508506512512514513513515515508507517519517515511505508518517512511509507509512508508515516514510511512513516513513511511512513507511512510506512516516523513503513510512515515509505513511507508510515516513512511514504511520515508506505507515523515515513508506508507516518508515525512513517507507512509508509511515513511511518514507509512508501505509514519527523517513512514513508504516515508508508508509513512510512511512511511511514516516512512513513512511512509511510510511515516512511512511510510511513512513514516518513511507510513515514511505504509511512519519516516520515511506510514515511508510508513513505503518511508501519531519503499511513512511513513513515514513511514514514511516506510510513510510510510512514512513513519516514515511512512509508510511511510512513518515514512511509506512517518516511510514509509512510502502512519515513510511513515514515514509509512509508512513512513511510512512512514513515514515510507509511512510512516515510515513513512512512512514515513510513511512514516508504508508512505508511520515516520513514514514512512509508511510506511516512503508517514510513509509513515511507508512516518510508510512512511511512518524520515512512512509510510508509508512515517514508501505513511510522518512517513511512512512511508510512511512511513511514510512509509514512511508511518510507511512512512512515511515513515515512510505510515514508508516513511511511517518504510513515512512512515513512509512513511512515510512513511510512515518510509505506514514513513512515510512518512515511504511513512512509505508515519513507504509508518519519517520519511505498513515516513510512512513516511506504507508512512516519518512512513512514513511508509512511512512511513510510512516513511513516513516511510510504507516510512509511507513518518514515515515513509503512510508506514513516513517519515507508506504516516518518515512514513512510504510516510508510514512515512512517512514511514510508507509514512510515512512512512511513512514513514514512505507513515518513511512507507512512509520514512518514513507510515515515513510509509511507512516511511512513514518514513510512508503506508515518518512509512513515511510510501506515512516513510510513510509516515515518516517514506506507510514520517514511508513512507514517504507515517513513514514509511517513509515509506513514511511513512511511512513511511510508513517519506502515519513512513512508508512515519512508509512513510511515515512512512515513516512509515512510509507504506510521520516511510503516513512513514514511508507513511512514511514513509507515514515506506506514518520520519513503506512514512511507507514507502511521522515515520513509512513509506508511511518514516514508508508513516511517516512511511512512511511509508510512515513511516515514512508508513517511513514511508512511510510509513517512513513515513513511509510508510512512513517514513508511517513511515510507517519513510509510509517514514515515515509509508514516514510510507508516518512507510506516516512510515511510514520513514513511509507508509511512518511511514511508511508511514519515514513510511511510513511510510512513507508510515515515518517515507508517514510508509508512513513514512513507510519516510508509509510513519516510515516506509511510513514512513516513512512510508509512518514510512514514511516511504510516512511516513513515514504504507512518524521510506508507510515513512512516520518507507509514511508519516512512514509508512514515517518511507512511513510506510513510511515518513513515517520518515511502497507505506509509510511525518515520518504503509513516510513513503514514515501512520514517514514514515511513510513508510512513513509516515513508508509513514511510516509519514519517511509515509513510505513513507506511513509512515510512518521520515507504507508509514513510511510513512510513512514513513514511511513512508508515515506508509510524529523509508511503512515510508508505503509514513519524513509512511515518515515510510502500496510518520513518513512519519515515508508512512506509508505524521506510514511505511513513510512511513512512514511513515513512511512512516512516513509503510509511512512515512513519514508510512512512524512502513515514511507504511516516515506512519522515508506504504514517519516511508516515515505507511511506506508511509514514513519519512510517511504504507518521514512512516514513513510508511510503508516511510513516520517507510512508511512514515516521519513511512510505505501505512510512511507513516514517517512511505511514510513521516512511509513518513510505505511516514513512511511512512512514513518519515507506512514510508503508517514511520519520513504503516515509511510515517511514505512516507509510511514512511508510511512511509510510514518512516512516512508510510512510509509511508509513515517514512513516515509510505506515520528522511510506505507516514515506504515519516510509515514505508512512508517511507511515514514518526515507500507513511504510511510516516514510506508511514514520513510508513516514512515512516512507509510509514515515512513511512512515512512513512511512512512511514512512512510511510511512512512508510513512515514514512507501509512512521524512509516515510505511509511518519513508505505509513521515512510509512515513512513511511510512512518517512508504509511516516513513515511508504505514516513511515512514513515518512509513513511511508511511509510511511510515516515514512510508507515514511511511526518504509509512506511515517508507506512515517519513511511505505512515521511509518514512513508513512514511512507508512512512508507515514514511508512514515512511512513511512515516515513511510511509507513509511512513515513512510513511515515513513508509511512513512514513515515514510509512512512512517511516518511511506508506512510515508511516517511508513506513528515508501502504507517520523525517509507511511509512512511511511509512509508509518520519517512508506508507511516511514513510508507508514513513513515515514511509512513513513512513511508509511510510508520515518509508511510512514516515514512509506513518512511513511512519507512507509511513509510512515513513513510506510514514513515512515511508508511515514511514518512508509510508514520511515516513508512512507513515511511510507505512513507509514515514511511515511511513515516512511512508509511512513515511506507508509512518517513519519511508511510510515515509510511516517511512513512510509509510512516517511511509504510510510514517513512513513510509510510514514515510508511510509511512511513512513511513514512516513509510515518512509514512508517518517513510508510513510510513513512513511512511512511511513515510505514514513515518504510516515503504521524516509510501502506511515518514504505513514516517514512514510511512513513514515510505507511514519515513512511512509511511506508512519517513512511511511512512513513515513512511511510512512511511510511512517516515513517509509511517514511509507508513511512510512511515514515513513508514512509512510507508512517520514509509519517511507508505516515513517515510512515512507505512518517512513510515515513510509511508509509509510508512514514513516516511512511511512507512512508513514514514510515512507510511513513516514510511502508513513515512511512510512513512513511515516513518517509505508511511504506518513511515516515514513505512515514512511509512516516512510510511511512513509513515510504514512516524517502505512524521516508513506501512514512508510510516517515510510508509510511512513510512513511512517513515512513505508512514511513512510506510514514515513514511510511514512512513513513515513513512514512514506510514511508513513512512512511512512515516513508507510513511511509504511513509511518519515516517512508508513508506517515514515511508511515515510508515515515510509513511512512509509515514507510512509512528535516509502501506510511511507506508508517521516516510513508511514511507513516508507510508512510504517523516513508508508511514512514512514513512510507511516516513512512516514515517511509505511509520527512505502510512509515510504513512513511514512510512514511515511510508512515514512508517517510512513508506512525523516512509511512511511510510511516508508508508517516511512510513517512508510515509508518516515512508511513514512507508511512515512514514513512514513509511511513508511514514505515515507507508510513530511508517512508505508513512514518516518511511510513510505508511507513516514513512507504518526519514506507513518514513519520514498501506510510511511507513525523524514505510507503511513512511509506512514508509524521512514511513512506506508507511514516517514517519515510510510504510507506507516518510515519517511512512511510517514507511511514513512514510509513512512511510509509511515513508512511510512513511512514515514511511511510510515515513511511512514507506511514518509509510510508513515513515515508512513513517517511512514518514511507506507510513514512513513512507507512512511513515513512511512515513512513511508512511511510515513516517513508512511510507505507515516515515512513514509508507505512524518509503515512513519511511513511510512511510515515506509510513515507508511510514511512508502510529522512511508505509510512521517512508510511513514514513515513515515508511506506512512508510511511510513511514514509508511514516517516513508511519511507512514510515508504507506514514519511515518515513511510512510514513510509509504509515512513518515507521521514504512513510510513506512512512514512516515511507506513517523520515501499508510510512512511514512511509508514513515516515517511507510510513512512511511512515512513516513506511513511508515518514512513511513509505500515519516512511515514512511512511512512515511512512504508513513517520514512508503513517519516511510502507515510510512511512513513512510517522516511508513508506514516511512509511511511515515511510514512516517511510512513507512510510508512512512515515518514507508510512509515519519514507504506507509515519517513516512508510510512518516511516510499506510512515512513512518512513513514513508508511515511510515514511505511519516511509512515514512511508510508511519518515513511515511511507506509516515513512513513512511512512511511512510508508514517515512508508512518513513510506512514515513517511507504502509521521511506513520514509508510513518515514512515515509504507512513510505512512518516513511507516513506516505511509507512516512510515517513509510510512514514519520515510504507510511511515507515514513513508509512517509508515512508511510507512511506513515510511523520513514519505502515513510508510509511516510512508510516525527522513504505506503503509511517513519515506509512517518519521515505504509511510508512512513511513512510511511513516515512513513505507510508510512514518509508515513512512515518512508508510518510505509512514512512510512517516514508514516513516515508510510508510514514511511516514511511512510512514515508502506518517513510512521510511511511517521510504504507510511510520514511512513513510510511512513515510509513510511510518518511511512508507510518512512513514514512515512515516512512509510507508505508516519510508517516523521519508500500500513516510510512514512508515514512512515513507513514510512513513514511508508514513509505508515520515512517520513511510512511507509512509509508508517515512518513511511517515507512516519504500516516512508509511511511513511513514512512511515512511513513512511509507511513511512513512513510511512513513513512511512513515518513511510509508511516517512512512511513509511511509510512514513506507513515517518514512509513514515520515504500507505511505513524515516509509511516512507511515512510510512513508511514509516511513511509509511519520518515509507508508511515514513511511508512513513514515514513511512511511512511513511510508512514511515515515517509509512513512510512515514510505506511512515522515508508511518509504513515507512517510506511515511508510511514512512512510512519519518508509510513513513506512511509509512511510512513511514515513514512515515513511504508508513511514513515513511511520516512514510508508511512513510515513512512511509506512517513516516514513507506505507515513513512510508507510513513519511514512515518514511507508513515515512508514513512515515515512511514507508522517505510497500512513523523515514515510508516512508508508506508511514514514514515509507511512514513509513514512510511509512522515506510518509513520509511512512513513510511508508514512510508508514514518515511512510507512514517514508506517520522518506496503509520519504509514511512511511513514509513520520509507509512511510512513513511509514511513516518518507495506512511519529518502506501511515512511512511512513511518513523532517510512506508508510512508503509512514516510508514510510514512510508513511511513511509511516510512518515511512511515512508513509511511513513512512510509512515515513513515512509506518515513515516509508506518499504515522514515510508507512517516515511508502511509505516519518520512507517515510503508510507507518513511513512515513513514513511513511509515515512512511511509511513513510515511512510510507514520519515510506509511513513510510512519517513510510510515516517506506505508507512512510509512512513513510513510512515515521518512511508507506511517511508512517513516518510513517512506510511514511513514509508512515510515514514510508508514516516518512508509508515518513512510512511505503502512515508514515514513514513514504501512513520514515516515512514508507510514512513511505504515520512513516519514509508511520511508508513512512513511505513516511509511504508508516521517514514513516510507512510508515511512510513515512506504511512514522512507512514513508509516513512512511510512511513512516512511510512512510509509511513511511512514512511511516514513513512512513513513511510511511510511511512512512512512511512513511513513512512511508508510510514515509510512512513516513512513512512512510512515512507508507508512518514514518518508508509514519513509514516510510512507509510513518515514513516508508504506510515524515510509506512513516514512509506510515515506510513512513513512511511513516517515508504513511513512514518515521511503503508515510506504517532522512518515508505502515515513510509505508512517516513508511512510509511512513511510512512512513511510512510513509511514512511511514512511513512511513515514511509506512516513511511512512510513516509511515514514520518513513510507506504508511513516512513515512509514514512507508513516511508504508513520520512510513513513512511512514512513516511508509515511509505509512513518517517512505513521514509510509504500512517514515514516519513506508507509511512513513511510512515511512512515514513511504511514513515515513512513509510510511511509512510513512513512514514512514512515512512512510510509510511512513511512512515512515511513511514512512510510511512513512512512511514511514515513511510507513515514511512512511506512512513513511506515517512520515511513511510509513511516510506508509504517520519511499506514517512515515510507504508507517527523511509507510514512513512515515517510510512510507507512512509512513515512512511514513513513513512511510511512511511510511512512513512512512511513514515513510510512510510511511511514513512512513512512512512513508510513516514514511512510511507505514517514509513514511508510518515510511512511512508511511510510515520517516507504504517523516512511510511507512509511511512515513513512511512511511512509509510510512513518519516513511515512510512514508510512510511513512512513513512507509510513512514512514513512512511511513511513512514513512511509510511511510509511513515516513512514510510513509507514508514520517520512503498504514509512520517511514516508507513513517514509509513509512512514513513513511512515512508510510510510509514523515512512508511513511508513513513510512514511511506508514511520519516512513512511510511511510511511512508511513512510511513514510509513517510513515511512508508514515511512511513514514515516515507508505505509510508519523515511509510510512513511513514516516512516510511508509508507506506509517522512522515515509509512510516515512510512511512509510510508512512510512512512519519514510513512509510512513513508507507509511518521515513510508510510511513513511512512510510511513513515516516514511510511507506508510514514513511511515513510509508508510516516518518513512511511508511516512504509503512522519515517511513512510507512509512515520514514515515514506500506503511515515513514513511513509508520517508510510509515523511513515508510508512516516515511508510514512509507508509512515515515511513512512511510508510511515513510513512512512515511508514515511512513512513516513511506509508510514513515510515510515514511512514511517515505516515505509512512513516514512509509510511513517513511510511507509505510514524515515515516508504510508512515516516512507505510511512513513514509507514512513517515514515513510511515514512511505509518512508511511515513513514513512511508512511512512512515507510519510505508516517512511510507504513514516519512513515511512514512507512517518515507505511511509509512515510509508512514513513513515514512512515515512512511512518511510512511509513512511507514520516514509513512510508516508505512517511514508512508511512505513515512513519515515512506501509511512509511519519515515508506512510510516514511514513509511510511510514515511517511514515515511511512511508509512516518502508517513514511513512512508511514519515510509508506504514520513509509511511515506509511511527519513510507509510516512508512513508513519514511512507508512510508510512513516518512508516513513513510511511510519515516511505512510510512512514510513512511513513509515517511511507507511521519509507509511512512512521513510510505505510507513513519524516510503504512511508503506515513520518499508514513516513515515514514512507513515509509510510504510518515513515516514510514511508508516510511510511512513511513509518516511510507507513512510513517512513513513516507510514513511508513517513514515515507512508511511510512512515513512512513511510509509514515515513512512511515512511511509507513515514510515519512504516518511511512512515513499506517510513510510505512512511519517508514515513512515518513511514512511511510504501509509512517519513515513511512514507514510506507511512512519518515507507513513512517516512508509510501510510507511519518509508510516516514513511510509511510510510512514517517515512512514516512508506510516511511509510510510507513520516516514515514511509506504508512517512512511513515513517516513509510508508516521515508504506510513513512511507512510511520519510503507514518514511509510517521518517508510509514516517511510507505513516513512511513507509509515515519511510506506511510511505508511512512516520517515504505523515509514515514512510513511511511514510510511510508511512512513513516514515512512513512512512510512509512512513511509510512513515514515512513511512512514511514516511509514508502504514515518517516508504502509514513513520519516519510506509507505511519512511511516513511514514510511514515512511510508508513517513513514516511513514512507510512513509508508507512515518519515512507508518513511511511510519513513511513515515511509511509511506507511508507519523516512510507515517513508513513513513513511514511510514509504504511511514515515515511509507507517522527519512508504507512507509508512516515512508510514513514513515511506504511515514515513508510513516508510512511511511512513509511517520514511514512513509506515519516515514501499507509509514517519520517504507515515511508510511511509517517514516512508511514508511515510515516514514512502507511511511516519519511511513514513510510504510509513510509511510514514515521514511510512508511511508509513511513512513511513516513509513515510510510513510510514516515513518513508505507511511513514513515512511509510510513512519518513511502502511514518512513516511514503508513514510507507510511519520517511515508513515515516518502500516519507509514512508504508515510511511512514517515513512512512509509513515515513507508509510515519514518518513509507507505507514512509511513515515515515514513514511511512509510509516517510513513511512510510506516513511512508507512511512511513513512510514514514510506511511508500512520512526525517515515511509508509512508509511509515509507512514511514512512517512511507506510518511508508513514519517508508516512513508512512512512508504506506513518526525508509511513511511511510511514515510503510512516515513513511512512510513512512515514513512510510508508511513514517512512511510509515514515518516516514509503504510511511519519515509512517510505507513511515514515511509508511512511513512506512512511511521514507510514514512512512505512517512508511511519514508511512511513514514511513513511506512512510510515514519515514509506514513511511507505514519518509506509509511511512513515513515511505507511514516510513514512512512510514512511512524516511515520508498511519511508507509506509513516513513521518511513505512513515513511514512512508509513513510504507509511513515519519518511509510509507510512512513512512512512511511512512512512510511515517512508508510509509508512517515516518516512512514512509510510512511508509510511511513519515518513509507508512510514516511511511510511511517514503507508513513509511517522518512511510512512509508510507507513515522516510511512510512513511512515510512517515511509509507505505510518516516516515513511508509512511509512510514516516513514514507512511504503509512516520514513511511508511510510513512512511512515511506511513512513512511508520521514514512504504515519515514516515508508508503504507516516515511512517513512519515519513509513516514511508505505508510510506511517518514506511510513509511515511511512513516513511509514515511503509514512507514515511507512518515513513511512517514512509512509511519518513512510508510509511516516512512511512511510504504510515521519511516514515514513513507502503505515509511519517512510507511514515511515516514515516513510509505508518511512512511510514513512513512514510513513504507511512514517512512511510516520520516507501502508512509513519519511512510514514517512510504516519514507510505512514511511511513508509515514515512508513512514511512510511511509511508503507504511525534523516510514511512511512510506503504507508513518520519515513510509509510513515515512513510505507508511510512511515519517512513513510511512512512510511515512511516516515507507511508511512512517515515518517515511507503507513519514514510510508507513513513515512511512510507510514511515513511513511506510514513518516520516509508510515504505504505512518513515508507512513511519516510511513518513507504510515513513515518522516511509512510511505505503507510512521518509515513510512510511507506513522518515509508512509512513511512510511510502506512520523521519511506512513512509505505509512512514510509509508509514520518510510513509511511511511511510517519511510514515511510513514513512517516509505508513509515520515511508508513513516511510507514520515515515503506505505508513512510506509513515518519520515510513513511505505511510514522513508510512513513511510504512514517516513510506512524511506509510517522522515503514514509505509507507513514514513511507510513507510520521517516506507519515503508510511508513513507508513515515516518513515508511512513508504502512513516516519520517510511511511508506513516513512512510506503508521519520512510509506510512507511511515519516514510508508515511511509509506507519519517512513507507506511515513517521519511506503512516517517516509504510513511514515512510506505506518513510518521520519507507513508507511515510509512514510509510511512511512512509511511513509513517518515508504511515508515519515511511515521516508509516511508506505512518512510519508506510508509511516519515513512509513510511514512510511511509518517513516516511511509509513515508509516512507511512509516514511509516515509515515513518513506510511509508508509499505513519514514516517511509504511516519515518515508517513509507505513514510510512512514516519510511508512516515513508508510510513511512512509519519509513517522513511505511510505508512511505510519509516526521508512507512516506502509515511510515513511505511515516513511510512512512512513515511509515513512517513513514507511518512509517519510505511506501514509508512512514521520516514520518516508498504504512512518513512507507507510520519520510509511512507514515514522519505508507509508509512518513512510514515507509516511507510507508515516516513512511510509515524518509505503514514516518517513509509510510509511508511512512514514513515512509511511512517517516511511510505505504514514516520520511505511515518515514510507501512514511513515509507508512513514515517513509512511508514516510513512508510509510511513511514509515513503508512515516520516511509505508510519516512513517518513505515513510509510510511510514512513515520517510505512512512504503512518514507508514511511514511511513513513514513515513510511513511508516509515519511506515510511517510508513512511507507513511513512512512513512511510518520515513515512508510514511505507507515509511522513507506503511512519527519515515508504505510508515510514515519508508509518511509514511508510514513511515515512511510508512514512515515508511515511516514512506508511510514519511513513509511513515512511510517513513513509504507511516515513511512512513513513511514511502509514508507524520524521511509507508507507505513514512521519512507510511509506512518517517514510510511514512515519511507501500509516514511510514515517512509510512513512512511511512514516515512517519512506504508510508514516515508508514514513511512513515512511508511513514515515510512512510519514510509511511510514518512508514509508504499505513527522509508511508519525515516515511513511507510512509511511512513512510511514515511510513519513508512513510508504510513511513518515515513510515510510512512509504508515512515517513510511512512513512510512511515511504512516511504512513512516515514515511512512514506508503515513510514511511519508500505511522513509521525519514513509515513513509506512512502513518510509511517519508505507512507510515511510511517516513511512513516513509508511516515515513508511503507514516514515513511512512513510508514511510512511509515517515515512510512513511512509504509511512522520512510510500504511514520512510511519523519510504504510507506514519506512515510509512516516513509508515523515509504504505513521512509514512511511509514513514512509511516513511519518512506511513511513511509505513511507513508511515518509511512516515512512511513512511504509508509518519514523515505510513511515517510508513509504505510517517526511505500510517516520523517502499505506514517511504517520513516519509504515513511511514508506510508507517519516512515516510506508509520518514511507510510511512514511510508510510513514516516509512512511511512506506513513510510511523518513517514510506509512512512510508510511511513515510512516506505509515518524517508511510518519507512513516512513509506517515503502510515515512513509506505519520517514512511514511511507513506509513510512515517511512510511513514513514515512513510511513512513513513513514509509512509508510512514517514511513515510510513510508512509509515515515510510510512513513516515511510513508514514512518506504507511510510516513515511515513514520519518512510508508505509509513510510511515511513520515513513511507504514517513512513510511508511512515515514512508508511509509514523519511511512510512509506507506513514518513513517512512516515514514512506508509509510513516514519515506505506511517515513514510512513514514512512508506509510512512506509512515515509510513516514516516512511505501504507514529526521518515508508505509511507514518505514513510512511511506512511512515514515515513515515511502507511508510513513511512514511513509511510510513519518515512516511508511513511515518505505513514512507509516515510509516514510503507515524521518512515511508508514515515511515513504507505504506514515511512514512513512513517517511516512510512513509508517513510512515509516519518511505509508511509504509506513518518517515516514509507511512507511513512516513508510511509509511512515515514509518524512509512504507516517511506505510511514515511512514515515518513501503513515504513520519513509511513512510516517514510511514509509513511513512507509509513511507507512523515507513516515517516515510504499507509512513513518515511513512519519516511507508511514513511508505504510509517519517513516513510517513512513511511511506503511512514518510507510511514519519516512510514513511502504511513513512510517512511512513511510510511507508514513515523525517517519514510505506506506513512509514514511511509504512511511510521516510512508510510510518524517510514511508508512512513511512509505513513515512511511509513510512516522513512509513515510513516515515514511506510509511509511513508511515513511511511509510513511515511509511505512521517515508512507515510510508512511513513515514515512514511510511512512509510509511513516509505510515516513518515509513517510503507511511524519511512510514514510504512511513511511516514513512507512517512508506511511513515513513514515512510512513513511511510509507514518512515517514510508510512511513508511513510516509510516510512515514510505514514518523516512505502506512513512513512515507504512513505510514519523515506504505511511513516519514512519520516512509512511510511510508510513513514516514507505509509506513515512511513516516507513517509509513515512511510513512509507511515519511510514515512512511510506510506505504515517521520514510509521516513512512514509507513513515515508510510503508504514515515516509504509513511511513513514511511513514514521522515510509514510505515517512509510509515511505511506505518516518512514513510513512513511511515512508508510505512512512511510510519524513511508506511511510510521524515509501499514509511516517521517513516512504502509511515518511509505510511513517516518513507509513516514513514516513510506508509510517515512504510514512518508509518513517512518513508508513512513511511508512513510513513511510508514507509519516512513513512513515511507508509510510510517512510513516517503498520516516509508511518518515512511509512510508515516515512509510511511512515513513513512511510511512511508515512514510508511509511509509512515518519513507507518518512512510507504508513521517511505511510506512516513516524512507514517513513508512510512514512515510505512514511508512511512509509510511505509514523519512510516519515511508508512512510507511519516510512511504510512504508519518515516507501503512514521527518511503508510513512515516515511504508510511515515515511508514514512517514513508509516513511513517515504502508517509511516516514511511512511511512512512509498501516517530528515508507508509512513512510511512509510517519511506511509513512506509513513510515520512512516511504509514512511509512517513519516511510506504511515513510510509512512508511510510517517508515517516504507519521519511511508512500500517518515510509509508514513513511515516520518513507511510506508508514522515507507509512512515515514511506516510518511508504507512513524518512508511510510508509513512515516517512509509512518516508507505514516502515510510515514515516514512512516513509508509510513514516514513508510510513514514517515512513512506515514513511510499508513514518511512504504515521518524520510502506511510509518514510511513510510515514511508509513511509516515510519515508501509517512514518515515516515510511503511511513518514512505505512515505510523517513511511512508504509510509512514518512513512507510513509506508512517517509512519519516512511513509507512510516513508510514512508515514510509511512512512516511507508515512511513511512516513504513513513510509511511512512511511510515518518513509507508507516521517517510508508512511513511506511515514519513514515510509508510512513512509503506511510510514523519515515513513513514511508512509511510506509506510516515515513516517513512512512511511511512515510503508512514514516514514515516515512512512507511504503512514511507513515518514514511508501504512521515515517512515514510505508510513511515519516512512513511509511512519516511506506507508507515516508506508512512516514514521519515511511510507510510511515512513511512511510511512519521512510512519519507506506510510513513512508515511509512513506510515513508506513515514512521512510513512509512518515519515510505504505510511516518514511513516508514515508511511508509508511515518515511511513510509510517521521518510511509507509503507512515511508508513509509511513516517517509512511513516513512512516512515513512513515510505506509507509511512509514514519514516519515509510511517511507505511515518517516512513515507510508504517516508506509508517515511512515515517512505502510507508511509515525521515511508511512514516514511511512510511511510512511515517513513513510509508515515516514506507510512513517516512505502504512507511516520520518513506506505513519515511510504513518518514510513510510510511508505513522519519513510509509512515506507508511511513516515512517511512512510514518514508510512513507512511509512516509515507510510512517515514508506517518514511508512512515512510514514513512507509512509509515516512510512510512515515512513507512514512507512512514514510510515513499509518520510518516507508511512511513515519521520511512504501503502501515517515514511511512518518510513511512513510508514517516511515519510506512513510511505505512521513514509512510507512515512513511516512508512508508510513513514518516513513515505517514512512514509507515511513512509505507515515512512513512510507511514512512516518514512509510504498508516519515514521514507507508514513512513519515509504511508515518519512510511509510508515515513512515513519513505502504508513515520517513519520512507513511510506506512517513511512512515510513507513518510501512515520517513507506508512511510512513515510512511510511513516518509511513510511512513515515510507509511515514513523521507510513508505509514515512514514518512512510505510512511508502500511524528524517514511511507507504503504509512516513510514512509521536522510510509504505510516511507512509516519511510510509505512517516511511513513512518511497500512522521520515508506511519514514513509505503504513515519510511511515520515511506501508519518513511513512512515512509506513510511514515514513513516511507508507508517522524510508508508505511511504510516514513517523514505508511518518509511512515515515510509512512507512510511508510513517513515513513511511511513513514514516515505506510514516512505515517506510510510509510516512513516518511507510512509508518517514509509509513515516516511509510513513511504513511513514512508502508516517519512511511514518523516511507505510509507515511506507512512516517518517515510504508514512512511510505504518520512515516513511511509511517513516514512509505500510513515517514513513515515516502505516509509519515511508512511508508510502508515512519526520508504512513514516508505513513511511516514520516506506513515517515513513507505510508505518516511511510508511512517516514517515505508510508510511515513511514514508509510515516518518515510515515509512512509507504510514513515511513514511511511505507511516514519516512500512515513508507518515517526515505505512519516508509508505513515510511511512510515515514511507511512513516512511515513510503508511515512507512521514512514508510514513511510512514515514508510512511510512511513516513512515515510511514507510511505508518529513505510510508512516518513511507514518512513510511513508512517511505510509508512511514511512511511511512512512512511512518515517515513511511512511512515512512511512513512513508507511511515515521516513508509512513505513515513510509507514515515508508506511512518517512512511508508507507510512511505511521518515514515519515513510505508510513512509508508521519510511510513518514514513513512507504510507511514514512513513511510512514511510513512519515514517512504502513514513513504506513512511519519511512507509510510513516514514513511509511509509511514517519516510512512512511510510509512516517514508507508508505506514519528519509510513514511509511514505502505512513514515514514515512510505506515520519511510513505509513505511512512513519516515513514512508507516513513515512509512515507509512511512514514509510513512516512512509508511509507511516515512513512517524508509507511509504507513512514515513511515513509509511511512511510511514515516508512513515519514512508510516508505511510511514514512521515511510512512511510511512508510515518517511509513512503507519524513511511504505513512505506517517513513515515513512508507511512515515519514510505510513515521514513511508511518510502507507509510509510521518512511510508511509510514518523518513513515507504506504500510523529518520515508504508508509513511513510513515514516515508507511515518513511507500505517521512508510515510509515513511509511511512518512513511512512506513515511510505498518525519518519510506511511512513511515518514512508510511516512508509506514515514515512509511509510510511511516516512516514507510514511511510507509524521509504512511517518514515513512504508511511507509511509508518515515513513511512511512516505509514510509520517513516513511508512510511510512513513510510507510518518517513515519509504507512519516510504509511511511513520516511510505507513512511514514511511515512513514516513510508510512512509516520514503509513515510508505501511511518526515512511507501510516522522518514511508510510512511511504511512508506512518520511512517517519519514504497502509513510510512511514515518516511509511511513513512516511507508512512514512515518513510509506508508508514515513512516515515512509505506510516516521515510513513512511513513514507509510511511508510513507514519512513519513517514510505510508514524510507505512514511512513507504513511515514512517515507508513515513509509514516513513505513516513510517518512500502509515515509518522510506510513511512510516512512516516511510508502506512511520519513511510507512516518516512512509508511507512510514521508508506515516518514507515513511513514518515511512511511510508510512511509508513511511510511516518512511512510510509510513514518512510509511514512513512509516514505507511520515511510510514515515509507512515513512515505506507511513520519512504502511508518519504513519510518520515504508510507509514515512511514514513513514514514512511513508513515514510512510507512513511510508518517512519518510513510505515514510514510506511509515514512512497504515511515514513511515516512513516515513513513512512510511508508509507515519513512509509512513515515518509500509511514515515516515512511508505515520511513507512511511513512510501508512517519519514512515505507507507509511518527524509509505508512513510510508509511510511518518516513511509510512514507511515520518511506508515508505509511511514512514515511512513512513511514512513513511508512508507511516513519517514509507512512511510512509506512513511513511508507511515509509523519519515510509511510510512510508507509511515518514515514515516515515512507509501499511512511516513514512512513519519513507509513512512509518510503508512509513514512511515519515519509514511503507512512515513515512512518508512508510512515513510512513511508511513512513513512507511510510514518520517517510506510515512509509508509511512514511512515515512508509511513512512512509511522522514515509511507506518515510509510512513515512513508506511510508512518515513512513514514509508512513508508512517515511505512514510505509518514513510515518512518514513512512512515513506501505507512513511511512515511515519518509511520518512504505507513513503509512509508512515513518520517512514505505512519510515519519513510506512509510511511511513519515512514511510509511510507511513515513513514512510507512519512514506512523519511513511511503503508511508512515515512515518509504507509510520527518506500503517518513510518512512512513511508509508508512515511509513514516513512511513512513505510511511513515510515512510508511512514514512512510514512513515515515509508509510513513515511509512508510510514516521515511510508508511511509512505509521521515511508510510512512513517517513507505511513508506509510516517518519515518512509504500506513516517517510507507507508513522516510509514523519510511511509511508509508511511509511517518515511512514512510510511511510509511511511508509515516512515512514513512511511515518514505500511510505509511511518515513518516511511511516521514513512508509513508507514515511508514515510508508509512512517513516515513511508512511512513508508512508520524520516512510509512508507510512513512510512513515512513513513514512510512511512510511513511511511510513512513512512516521513506508508504510509512515515512512514512512517518511508505507507515522515513514510511512509507509517511511512517519511506513512513510512508505510510507512521519511508509512516517516513516514513510505504511511513512511511510513513515517511507509513512513522513506512519519513509505506514517512509510506507514514518517509510504509509511513519520517512510513512510512514510506514512512505510512504512512515517510508518515512511515515511511514511511511515516513512511505514513510513517514515510510508509510507511514512513508510515515511511511516516512512508504504508514520519509512515513512515516515510512513511509510510510512513513513508512514511507510517512509513516511512514513509512514509510507513513514517514515512510510510506508511510514513512510518519510516513511516515509508508509506507519523516512514511514511506508509512511509514517515512513515512512508509508509512512511515515518516513512508511508511514512514511510512512512512512512510512512513511512514515514516511509512515510507511513511511507513513512512514515512508511512513515517516512509509509514510516519515514512511510513508508512513513512509515515508510512512510510513512514514518519511501507510510511513514511515512516513515512510511507512512507513516509512514507507511515517522527515512508511506514518507505512516509511506514512515514508512511511506510510505513513518514513512510512513516515514512510511512511512515514508507511518512507505507512510514512513513510509512515514517516512518515506509515515513512515514505511509508508513512513516519514504507510511507511513514511510516517511519518512508512513514514511507508509516509515513509507505513512511515514515521519511509511507509510510513511511510512514515521513506509510509519521512506506508515515513518522513508507513515508505512507507508510511522524515518513504504508515514514512511509507512519515515520515510510505507513512511514511509512514513502512513514516512511511505506507509509515523519514513507508514515512510515518512506509511515513512512515510506500510513513514518517514512514513509512512514511511511513515512511511511514512506513511512511512517510511512513516513514513518510513510510511511508516519514505502507519510513517512507510511512511510513514515515512507509507514513520518508508512517507504501508517518513515515513518510510508511514521527517510510500503513516509510508513518510510515516514515515511505504510513515512513513512512512511512513515516511507516515510505509516520514511508507512515516510501511521515513514508508515514509509508506512517513512516515515523518513507508504512512511513509512516513508512512508512512512509512514515518515512508514513511510511509505507513512520516504505516512515515507512513508512515519515509509511515517514519513511510510514510504506508506506518524513507512514517521514516505506512504508518514510511511512509508508512513515516509512514509513516514515511508507512512512511511511515513515515512512512511510509512513513512514513516514513512513512514512507511511508510510516512509514521517508510512511508506511522513513516513513511514502504506510509513516520517514506509510507510523525516510512511511512509519518501510510510508510513513511511515515511513512510511509509517515512506506508511513516525517508504512513511508513513508511508512514513509506508516517513512517511512512511509512511512513513511515513513511512511511510513518514516516512512508508511516515511512515516511515507510508513511504509509519516510514509510513515519514515509509511511508506511513513508509509518515516521520515511507503513513513513508504507514515510511515512509513511511513515516515516514511513509508509500502508514512512521517515514510518515513514513504509515520515512511511508510515512514511511508512517513509509510511513516515517521515510512515512505510508503504511510513516514513512513509507509518518515517514513514516512511508509509507504509511516518514513517514507507508512514515515511506509513510509505508510515521521516514513513513513509510511511510512508510511511509515519515511516513512511506510513513515508512515508507512510511514518516511511513512512513510510512508508521524523509505504507511510509508513522519516513511510511506506516510509514516510507509517516516510506513515505511519519512512513507510508507515512511513511510517521515516518511510510511508509509510515515511514516519515508507500503512519515514515511512513508517515515510513509512510511508508510514512510508508512521522519515517512511508503507509506508516515513513513510511515518516520514507507512509503500515520518516517511504507515515512514512508508513510508512516516507510512513518516520512506508512513514513500502506512512515513517512512515511505508514516514521522514505510513511511510512514511509511511513511508505509512515515513523519518514515514510507507502505511512510511512517517513515513508509510511519517507508509512512513520519514513509506507510509509512514515516514510511512512510512512511511511514511512511516518515513510504511512504507512517518513518518515505506513510511510511512510515523519514510508508512509512516512508512515513507509511509507509513511512512516513510511512512519513512511516511507508511515519514511510507498510513513512515516516514518513516511508504509516515514512503504502520525518507504512515512511505519516509508503507511513515520523514508511515507509513515516509507513511510510508509515515514515511509511513512512513510514512511512512512514515514512512509508506511516518521515508500512515512508518511508506513519513512511512513512509510510512512516513511515519520511508510508509514514509507513511510519514511512512510505505510510513509516519518513510513518511512513512510510511512510518513505513517508511509508509513510513516515515509513515511512515517508512511509504506510520518514512510512511511513512510504515512507515521514517519512503505509506508510510510520523521516515518511506509508507509505510514511507508510515520520515519516512509512511509508508509507508516514518515515511509505516515508512510510512513514512509504512515515513513512519514513511505510510512511510510512516513512513515512519518512508518517508510512508504510512514515510514510502508507500511521519513515514515516516516509508512510507510512512511510508505521519513511511514511511512511514515510502507514519519517515514513516512513510511504506513523511503503511507512522514512518516515515511511512508508507510512511509509515525519518512511513505501504510509516512511517517508507512515519514512509510508512513514512512512510511512508510515514515511513515509512513512515518513513510508517511508510512507508509513520519512511510512514514514506504502503515528515510515512509509513509512516516511507511514509510509508514518516511512509511512513513511511514513509509511512518516515508507510513511512514513508512515516513512514514512511509508509512510510515519516515512511507504515515506508511518520514510512507510509512519520511506504506510516526528515507510508510512507511516517514517511510510510500505516516513515514510510505505516521513515516516511514517510499506509503511516514512508510516515511507511515515517511509510509510511516514513514511515511503505512517513515513514517517513504507508511514514508512512507508511523523519509506515514506505510507509512510516518512511514518513515513512509517514510506504507505512516519519514512509512511510514510515512511509508510513511516512505511521520510502504511520513513510508510512515518515508507510510511510514510519516516513507508511507511512514506505511516519515514513509510511514508502507518508515525524515519510506511513510513512514519510507508511512512511507506504516515519518515512513511509509512509511519516509511511514513516511503504507510513513512513515515514512511511511511514511509511512510509511520518519513510508509515512514500506517513509515513511512515515509515513506504512511514515519516519515515503504511507511510514511516516515512507512517516508508509508506502510524523511513515512513512512510508511511508511514511507510511504512521515515507512520514518518512508509519510511509508513512513511510512515515512513512510509505510525516511508504510511512509508511518517511513517510499511512509509508510507509526527520519513511514513507504511513511505509510508511515511512513515513515518515512514504508510512511506512515515513512510509511514513513509516514511512510510508512509505512519517518514509506512513515512513509508507512516515512512511511510512514512511517517512513513510513515519515510512510503507512509508515512510512513511513511514513516511509507511515512514510510510513515512511509511512512509514518512511511509511516513510512510511512512517515508511519515508511512508509511513511508514512512519517514509505509516513516512510503507511516513518518509515512509513512513503507520519511513510509513508511513516514513519517511509512504502506508511513519519512512513514519511513515508510515523509510521515506503509507504511514511522523523509503512512504500514513515515517515513513512512515511509511511513515511511512510514511511509512511510511511514515516519511509513511513508508513511511511512514510507512519519515511511510508510508508505512521519517516513510507507515522514511504504502511521519518510511512513506505511513513514517510514511510506513511512514514514514515511514518508508503508513518520515510510510511509510515514512510509511512515514511512512514513516512512511507511509509513515513514515514515511508512514512515518508508512512514510506504508508510523519513515511513512513511513515513513513506513512511511515512507505511503508527520516517512507508513511512508508512510511510515518519518511511515518512507499505507510516515519518513512512505507509508504509515522518513512513511511509513514511515519514514509513512503503512514511511511509514512511510511516521518516510513512510515513512512508510505511513509513511508512519514513508515519515512511512513512504507511514514514511510512513508510511509515520516515512514511508508510510510512519516519519508508505511510513510507509513516511512513514512516510507510509513513516518512511506510508511513515510512516516511510502505517525517517516508506508514512513512510511511505508516515512510516514513513507509510510511516515513515514511512512515515515513509505504506513516518513511512509516517510511514509510515512510515512510513513513513510511512508510511519518516513513513511510511510508508505508511517515510504515519517515516514513507508511511512510512509503515518513515515511512512512514513508506507506511512519516518509496509515511515512511512509511511512515515514511509514510512509510519516520517510507511511511504509511512510508512516519512519515501504517508507511510515519518514510514515508509512509508512516511513512510508508513518516513510514513511508507513514515514514514510507510506506510524519519519515512512515512510510507508514508514512510509510506509515511515513513514513516514512510510507507510515515512511512512509507520516511510511514515516515507505511512514514510510507509511511511511516516513514511512509513511510510517518514513512513512508507511506514516510508516511511512511513512515510510511510508520515512516514509514508510513516515511509508509513514513514515515515513512508507512511511514512508510512517514511511512505512514518514516517512511508512512511511511511513511511515516508508506509508512516514518517515506510511508508510506508510508522521521514513512510506509512515512508508515515512517510508508504510521518509511512515509514519517510508510509511512514512514515511512510506509511517521517513504504511512511515513513510512513518515515512510507511513510507509509515517513515511509506510514512516515514517514511509508515511507513512511511511516520512515514517510505504509508514515512510508510511508507510518516512512512516515511506513516516524520508508508500506512513512508510518518515516513506501507507512516513519523518513509511510513512511512514514512510503512510504514518517511510519515510515512509512508505510518511513512513510519516510506510512513514512510513513509506512512514508513505509517520514516516512513507507512512512511511513512512510517512511511511509516515511521516501500515514512509513515511511509513516517515516515507506507509511517515513511511509510511513511511515518515513508504510508511511512512512515513510512515508508513513513511511511507509508513517518513507511517515515514512510499512519514511511508511515515513510507511517516513507506509509515516518523518508508512512506504509510510511514513510515511513513512517519516511508513517515511507500504508509515519515514515515512512510510514516512511508509512513513513512514514510504513511510515521516515507508510511507510518517515516515511508503513506508510515513512514508513510509513506504517519517519521516509519518510506505506509511504510514514510512518513517515515515515509505510514513507510513513509510519519512515513512511513512514503507514512506509505502520523516520519515511510510505508507509518519512512516511506508517514517520510510509507508509509512516511512509511508511518520515511506508508508513508509511515517511511512508508514512512519520516506501506509515517513515513510509507510517520518513513504511514510512510511513510512511515513511515505504510508511515516517516513513515514507507511508511512511512515514515515515510511509508513512511517518515514512507504511511508515512514510511511515514511511513513513512515516512511507509514512509510513515515516508508512508517513515508504508508514522518515514512514510502508513513508512509517519516512511514510510511513512512514514507511515510510510512513511511513512511512514511513519512506507516517514513505510513516512504507510509518517514516515508511508508504512514519522514510514513513516507504504510512507509516513511513511510519516519510503509512510510514512513513515512514507507510515515511519516512514512510505511514515514511511510512509505512516513509511512509514513511515512513517519513513508507507511515513512508515509513517517511509508509511515511507517514516509510512514517512508511511510510512512514511518516513513517516508511507504509513511514517509511513511510514514516515513516514513505506511508515516514512509512511516515515512508510507506511510506508520525516509507508509508513513519520514509505510511517514512517514513514513508508511512515516514508510508513514514514510509509512515515515514512512514510507508505507513516515513512512505508515513508512517517519521510506508509510511510513512511517520513508509516513507511521513501516511504505507504516516518515517516513511510507509509518513518518514514511508507514515511510513514511510507507512511511511511514515513513513516512512508505504513512514527517504509510511512518516515515513505513515515510502510508512508513513509505510513512512516512516513513512512511509509508507510515519516516524514508503500498512515512507510508509518515520520522514510510513517512508508508508512511514519515507508507508514513514512513515511505512514511511515519513508515515510508509506509516503513523519515514510509504511516511507513523517518521517512501494508517513508505509512517518509511512511509511508510513514523516519518506513506507516518510507510512509509509505510520529521511504504512515511501510512512516515512512511511510515515512511516508514519517513512509504505506512525516515508506513518515510509512509515515510505507513512511518518518506510513513512510508506507517519516512512508512515515515506498508515519515518519507503509511509508515512510509516517512509520526519508502505503505512522520513513511510509510508510506510515520509511511515516515519512511511513518509506511512508512515510508504510514516519515514515513511506506507514516515509513514510510513512516512512515513512504506504515518510511521523517512511509511514509505509511508508508515521514512507510511515511507510513511511510511518519511511513513508508509510511505519518513509510512511519518516516514506506504509505511521519510512511510514514514509505510509512513515516514510516505512516512514508512512508507518518511519516511506508511512511512510514512515515514514512512514510508512511510510511516513513508505516519513519505510513508513518510511508507512515516513513513513516512509508507515512505508510513513515520506505511511510516524516514512507511514508508515514512509508508512512508516522511512509512513507510509516524519512508505505513514511514515518513511514514510508505511512511510508512518508511517513512510512516507505513508510511513515513510518513511514518515513509508511513514505508511511512517515512513510510514515513514512515515513511506504507515512511507511518512511516514511509518519514510510512515511513511511513509510508504510514517511505509512517516504507513523524515508506509512521520515508504504504508510511514511511512521518513511512512510496509513517524519515513515510507508508513516511511509515515515510506506512512515514511512515514510510512509511511509509516516516521513505508512511512511510512512514513510507516521511509514512511509507510515509508511513509512513513516515513516514510513507511516515511508507506511511514522516514511508515514508508513512512517514511511508499510518513509512519510515519507509510513515515513510506508511511513510508511512511512512516522521512510511513515510511512508503505508514516516518512512507511512515515511514516518510507511503506507511512513517518512508511514518519512512509508510513513514509514516513508512519514504505508508509511511515522515512518513510516516513509508514510509506511509512513512514516514512509509514516512506510511517520516512507504505515517512512512506506516522518510515512507500502505522534523513510505509511513512513513510512513513510505508505510519513509513513510515518516511511508510510513509510515515513510511515508508515511511522521514508506512515510513510507511508511510517514510509523521514509510504504508512512516518517509510505510508508514515517514511511512512515512510509512507509514516516521523513507507505504508514516512510510510513512514514514515512512513511504505508507523526510508508503508511515512507522524513509510508511519517518516514504505508509512512514514515514513512510513509501513515511508506511513520515513515514512513515510507512510507512518515513500509522518519519512504499503503511514517520519511511512513512511514513513514512504504509507513526529513502510510512514512512510511509512511508512515513513513512511511519511506508506508509517519518518516512505501508512525520511508506510515511515513511513515506504512513508513512508512515521528517503502506506510510516517512514514509508508510515516512511510517516510510509515515513512507511518508505511513515514519512513507513510505510510512517516511511508507511525523525520509499504507506510517512508505507513521515510510519515512515515512509512512510508509511512514514508509517515511508510516516513511513512510509507507509510512515520529527511512516508501510511503497503507517516512518515513511511510513521520513512510514513511506500500521528511508513505512516517509504509512511511516514513515514511511511519509511511497513516516515511514514509510509512512513515515510508513508505513513511512519515510512512512513511515513509509506508518515511512513511514514508516527510507507510512506506513512514516511510510512508506511511511515526520512512509512512511516516507509510517519508504508508514514515514511506524510492508518517515513513510512511512513508504511512513515511509511509510516522517516509511512517515516513507509508510515512512510507510513513511513515514513512509512508507511510515515512510511515513516518511509511510512510510513513520516511505504510511515515518512505508506509516515517512513512511511509518510508512511512512515517517519509508509509510510508512513513511512515516515511519511506508508508510510513513510512519515506510512512516520518514507508512510510511504505515520515515519514514508507514514513511510508510514511511515512504511513503505511519516521520511513518517508508508510513514508512507508521519513515513515509510511512513507501507510504512517514516512517517517511509513515518506508515510512505514515512513514508508512513515506510512513514513515514512510505508511515516513514511510516516512510508515515515510508507513513513515515515510510509511508507513515513516508503509513511515516514508519517509507514516515515518508504504516518513512513509510513508512515511513507507512510520516511511512512511507510510512511510518516512508508508514519518514509510511515514512512508509509511510515512510512520516513505508516519507510513521521511507498511517512511509510513510508513510513518517515517512508508516513512511505504509518520517509507502505511514515516524515511514511511517514510509511511510510511515515513512509510512513513512512512510511508507514517513512511510513513513511512511508512512511513509515511508508506519516512514516513510509510514513510508508511512512513516514514512506508516514510516517517511506509509508507512514519521509507509509511511515518513511511508505509513524524515508507508508506503512518515514519511514519513511511508508508512516516510511511512508508512510512515519524517505509511508505514517515511510510512513515515514508508508511510513512511514511505503509515518517516512514503515519512512515516513508504504513514512513520513510510519512508510510503512515515505513510514513511508509509509513516508512521522518512511513512511507511511512513505507514514515513513513514511514512508508509510516515513512512508510512511513512507519521515510505510515515511515512513505506510511513519516512508510512509515515509510510514515518513512511512513513513510510513517513507507511515511512516511504506512511513514515513514514510509507513514511511513512510514515512512508513520511511508507511515518524518510510509508507510508511515515514511506508514513509514517511508512514512514512512510511512511518512510512509515515510510512517518506500506510514514512515505512511514516515515512513514514514514515512513510508511507505513513509510516513515514508504499502510522530522516513514512513505508512509511509507512511512512513521513513518511509508510513509503512516515512515515514512510510509510512511515515515512507508510510515515516520512505499507515519521519512503504511516515514506503505508515519517517515512513514515517512510504514515507508508508513512508511512512523519511510512507513509512518521515510506509508509511505509512516517516513513512512514511510511511506506510517521513510510512513513508505508508512521518518519516513511499499500510519527523512510507513514514513509511515513506518515514514514507498501502510513516514511511509511515511511510515519524517512507506513513511512515511511518514504506515514511511512513520512504509514514516514515512507512512510497505510513507519519508515514514514511506509510507524533518511503510513514514513511511512508507515505504514522515513518508503506507516520508512515515518513515513512508517518506511506497507519519519517508507510511509516513512513514515508513513513519519513508510511510511515505510513513504509506515522519514514506507507512515509510513508503511528523511504508510510516513524515510513513512508508509512513507505511509507510515515517514516512516516516515510508508503509513511517518516515511508510508514515516512511512507505515514514513513508507510511513511512515513508515516513519517517512508510507506509510514516514515514514512509508512509512515512512507508517512508517515513512513515515509505507505518515516516513512509512510504506511516518516516516516511508506509508510514512508507513514512508508509511514523525513505507512510512511518513508504515516512508513507510517520511514523517509505507507508511517515511514516515515510508510514509511511515512510506510509514518512514517504496509512514519515516516515513514513511508506509511513516514513516511505517515515513511513511515513511511512501503503510513519514509511510508510514513516517515513515516515514508506509511511509519513515513511509507513512508506518520515512511507508512511514514513512512510511510511514515512509505507509513513516511511518517519512511513511509512508507512507499511509515516517520527525513505507507511505509517505512515510511512512511509513516515512512514507510512511511509508511513516513512512512513513515512504510519521510505509507506513515516516509510515512515514514515513506509513510508508510511513512512512513511511511514513516515514511508508509510508508512522522520519510508509508510509510513510508513509505511513514515515511510509506510517517514514513510516515507513511508516509510515517517514511515507503508511512516515511511512510513518508510512513516515515508510510513510511512508509512509513512511517515512512511511509511515511511509512509508510512512512517517517519515508508508509509513513512512514506516507504513514512511519518512514509507513511510520512511509506508516516511511512513515513515508509513510512516513513506515520516516510505512510511511507511513511515508505509513516524517513513512512510509511510510508519521514509511508505508512513511506509517520515514508508509510512514518515514517514509509511511513511513516513509507504507510499499518528528526518513507511512517515508509511505510511507507507507515519515512511513513512516513512509509504508510510517518510515516513512504509511518514514514510515515510512505505504512513514513518516517518512509510507512513508507510506509520519515515512514512512512510509509511511508514513515515514514513515502505507516510511507512515520518516510507516510507512514505512515515516509509509505508514525521525510508507507513510507508511514515513515512511513507515516511508508516513512512513515515508505510516514519512512515514511507504504509511507518518517514510513513511512512511511512513511511516514510512513511509514510507509510515514514528516518513507506500502513516519515507511513512511510511508510514516517516505511507505510503508525521506513516513512514514512520519515508511513507505508508508509515512509508509515515513516512511510515511511515512515518511515515514505502508511512516521518507512515509508513509505504511519520519522520507504507513506503511512511510511516518510513519506510516511508513517508505515512509513513519512511514503509512515515512515518517515509510509508510512518515515515507503512504502515518517515511515514503505509507517524516512507510511518516518517505509509510511514510509509510514515515516519513508505515515513512510510507504503515517518524517510509512508510517515515514511510513507508509511515515511512510513517515507504514513521527515511511508507504508513514513512517508509509511510513514507498519517508514524515517516510504508515508511510515507504513512515514513513512515503504515512503513510509517521521516509510512511506509512511512514512508510514518518515514514506507507510511512503507510519512514515513518515511502499508516520515518522516509504509512513515519507511507507511512513505505501519524508514523522518512510511512507512513511513511511512511512511511505509511512523521511507510507510513512510512509511512515517508509513514510520516516518508508509511509508507515516509508512510511512515519514515512512516519516513515509505508512511511512509508509508507511512514513517513512511510510517515516512508512513510515514511506510519514508506513527518510507498502506519518515514518515512512511505507508518515509512507511520515509514518504494502513513513513513522518519516507506514513510516512507501505520517519512510517518514511512508509507509511515514508508507509512519518517514512511515508505509509511516516515510502505516516516517506507514510511513508510511512514513515518513507511513518511511512510515512505509512512514515513515515513507507506515516509513514512520518512502505504506518519513512511512512515513515512507513511513519505508514509508512511513511513519515521512512510509509507513518511511512509510511509506510513518515511512512514515511515510512510511510504508509511514516515512513511515515513514513508512512512509510505500508516524523519514509505510509512511510512513512504502511517521521520515512502508506502511515514520524514513517510500505502511513517513511515511513521515501495508514514512513513513511512514510513513515512510511520516512510505510514511510510511516516512514517513511510511511512511507508510511510512514515513517520512508509511507512510513508517513511512510506514513511518520504512523516511510511509510512509512511509511513510511515516511511509513518518512519512511508508519518512507504510508515514506507512513520514512510511516515510510509506511517517515512508505510513517511504512509508504515519514509511513515515509512515519517515511511510505507502511516512511508507515519518514512515514508519516503504506509510517516512511510514512510506511518513512513512513509508507512514512508508510515513519521519512513513513509515511508502507509508507512519517513513510513513512517517511508514510509514512511511516512511515510508510512512516513516512501499508508511510512518520513513512513513517517511512513506512515513511510508509512514508513518510508512510508507505514523519514511518512506512508511512513510511511510514517510510519514508512513515512508512511508514511512510511515511507514512510515515515513512508505504513516512511515511513518512513512512508508513515513511514511509516519515521517512511509508513501502513510508508508515517521521514512515507510512511507511513507505513517512515516518519514519511514511503506511510506508508510515512512512513508512512510510518519514517508503505510513513507513520520513513513512509498507511513510509511512518520510508508512511513515514515513511514515509507504512516515515511512511511507508513514514512511514515519523513507500497510515515520509503512510511515513510517525515516518511504510508513513513506506510510515518515504507519514512517512507508510513514506512517515509507512512511508517520515509513510511517514514510505501512518516508512507508511515512513522519510508512512510512513510510513511512511511516513506511513509511506503515520511515512512510513522515511508509503508510515525524512508512514513505508507514515512509510510508509509522529516510511509510505511509507509514508514515508510513514511512511510520515511518514510514513514511512510512511511510511510511507509511512515515515513510511516515512516519512506507508508510513512511511510512510509515515523519511510506503512524517506511513513515508506509515516512510517513515512504493506509522520517514507514511513515515512508513515519515511505508512514510512514507510511513512512518508506515512511509515517517512516512506510513508511509513517515510511512511512513513510507510510513516512513517516512511523518509509506510509509517515513507512512512511510511513517520508507505508508513516517510507512509512512509510514517514519519511507504507511510513512511508510511514513513512503505517516520515515513512510505504509513514508511517520518519515511504503506510514515508508508511515517523514511512511512514515516511517511507506511512512516514507513515512513516514508510512509507509512514512513514512512511509510513515512510511510517519511516515510505505510512512514511514512511515514513515511513512510512515512512508507513514513519505501503510524517512513512512510508510504507510512529526516512504506514516514514508509507508511512510511511510517514512509512513516512512513510510513514510514514515512510