511511512513513512513514512514513511513512512513512510510509511512512513514513514512514513512513510511512511509512512510510510513512512512512511513512512513514511513513514513512513513512511511514514512513512512513512511511510512508508512511510509510510511512514515515514516513512511513513515512511512510511511509511510511511514512511511513512514516514511511511511513514513511511511512512512511511512510513510511512510511511511512512513514515516516513513514513513513511513510508509509510512512511511512511513511512512515513512511512512512513512511511511512512512511512512510511512511512512512512514513513512512512512511511512512513512511512513511512512512508510510512513514511511512515514514515513513512510513513511511512510509509510510511512510511512513514512511514512513511513512512513512511513513514512513512512511511511509510511511511511512512513512513515514515512513514513512511512512514512511511512511513511511510511514513512510513513511511509512514511510512512513512514512513512511511511510511511513514512511513511511509511510510512513512512512514514516513514515513515515513512513512511510510511511510511510511511512511510512512512511510512512511512512514514512511514511515514515515512513512513510511510511512512509511511512514511513513513513512512511511510509512512511511511511512510513510511513511512514511510513513512512511512511511513511513511512512510512512514513512514512511514512514514513514515515515513511511511513514513512510512509510511510511512512512513512510512513512513510512512511512513514512511511513513513513512511512511511511512510510509510511512510512512513514513511511512512511512511512514510512513516515512513511512513513512513513513513511511512510512513511508513513512512513513513511512511511512511513512512513512511512515514512511512513511512513512512512512509512513510511510511512513511510513514514512512513511514514512513512511511509511510511513514512512512511512512513511511511511508508510511509509512513514513514515514512512515513515513511511512511511513513512510508510512511512512512513513513515513512511510511512512511513513512513512512511512510512511512512510510510512513514513514513512515515512513513512513511513512514511513511511511510512511512511509515512511514514512512511511509509511510512511512515514512514515514512511512512512512511512512513512514513516514512512510512512511510512511511511510510509511511513511512508511512512512511511512513514512513514513513512511511512511513513511514514514511509509511512512512512512511512512511512512513515514513512512513511513512512511509509509508510509509512512512514513515513512513512514514513515515513514516514514512513514513511511512512512512512512512511512510512515512513512510512512512510509511510512509511512511511510512512513510510510511511511512511511512512511511512513511513513517513514515516513515515513511511510513515513511512513510511512510510513514513514511512512512511510512512511509510512512513513511510511511512510511512512511509512512511511512512513512511513515512514514513514513512515513513515512511512512512510510512513514512513513514513514512512512514512513512509509511511511512512512514511510512511511512512511512510510512510511510512511512511510511511513512513511510511510511512513513515514514514512514515516514516513512513512513512512511511510512511513512512513513511513512512510511511510510511512512512512512512513512514513515512511513512512514513511512512511512511511511508510510510509512509512512512514515513514513513511511513515514513515512511514513510511513511511511511511510511514511512512514514515515513513512511512515513512512512511511511508511511513511511511511512511509512512512514513511511511511511512513514515513512511512510511513512510512511512511511513511514513512511511513513512512512514514513514512510511512512514513510513511512513513511512511510512511513512512514513512514513513514513512514512510511511511511511511510513513511511511511510513515514514513512512512511510511510512510510511514513513513514515514512515512512512512512512511513512512511511510512511511510509510510512512511512512512511510509510511512513515514515515517516513512515513513511511510510512512511511512511511511512511513510512512515512512513513513513513513514512514515514511512513511511511508510509511511508508510512512512512513513512510513512511511510511511513512511512510514512512513512512512515511511512511511512511511512511511511513512512513513513515515515515513514513512513512512513510509510512512510513514515513514512512511511512511511510511512512512514511510512512513512512509511512509512511511511513512513512512513513513513514515514513512512513512512512510511511510510511514513513514511513512512512511510510509512511513510513513512511510511511510509511511512512512510513513512512511513516513513514514514514514515513511513511513509512509508510509511513512512511512513512513512511512511514511511508509512511512514511513514512515513513515512511511510512511511510512511510512513511512513513512514514513514511511512512513512512513513512511512513512511511511511512512511511512512512511511511509512511513511511511513513513512511512511511509511509512513513514512513510512514513512513513515512512512513510511510509513513512513514515515514515514511514511511513513511512511511512513512510514513512512513513512509511511510513512511512513512513512511512512512513512513512511511512512513513513511510511509509510512513511511511513512511510512512512511512511513512514512514514514513512511513511511509511510513510511511511512513511512513514511512510512513515513514512512512512514514511512511511511512513512512510512511513512512514511513511511511512511510510510511512512513512512512512513513511512511508510511513512513513511514513512511512513513512514515512513512511512512513512511512511510512511513511511511513511511512511511512511511510513515512514511510511512511512513511512512512511511512512513511511511512513512511514513514515514512511512510508511511511512512511511511511512511512511511511511511512513513511515513515515515513512514513512513513515513512511513510511512513512513511511510509509510508510508512512511509511513512512515513515513512513512514512511513512514512514511513512514511509511513511510513511511512511513514512513513511511511512512511511512513513513512511512510511511512510510509512512514511512512513512512513511510513512512513512512513511510512512513512513512513513513513515513511514513513514512510512511513512513513512511512510510510512512511514512512512513510512514513515514515512512509508510510509511509511513513512514513513513512513514513511511510512513512513513514513510512509510512509512511511514513511514512509511511511512513512511512513512511511511512513513513512515513513511512511512511510510513512511513512513513512513511513512511511512511512510513512512514512513514514513512511511510511510511511507511511510513511512512514512512516513513512511512513511512513513515513513512513512512512515512512509512511512513513513512513512514513512511511512512512511513513511510511512511510513512511512512512513511513513514513513514511513513511513511512512509510511513511510510512513512512512511514512515512512513512512511511512511512514514514514512511512511512512513512512511509508512513512512513514512512514512512511512511510511511510512512512512513513515514513513515511510512512512513512513511513511513512511510509510510512511511513513514514515515515515515514515511513513512511511510511511509512512510512511510510512510511510511513513515514514513512512510511511510512511511513511514511512512513515512510508509509512510509512512510509511512510510511510512513513515513513511514517515515515513513512511511512513512514512512512512510512513513511513512512511512511511512512511512513512514513514512515511514512512512514513513514513511512512512512512511511510511510511512508510509511511513510510511512512513513512512511511511509510511513513513512512513512512514513514512512515513513511511512513511512512514513510514511511512511509512512511511512514514514514514514512513511512510510511513511512510510512510509512510512512512511513512514513515511513512512512511511510509511512512513513513513515512511512512513515512513511511515511512511512510511510511512513512511512511512511513512511512514514513513513512513512512512511513511512512512512511512513511510513513513511510511509513511513513511515513515512514514511512513513512510511511511510510511511512512512512512513511512512512512513511513512510513512513511512512512513512511515512512511513510512510512514514513514512512513511512510511512510511512511511511509511511514512514513513515513515513513513512511511512511510509511511514514514512511514513511511511511510508511512511512511512513511511513513514514514513513511511512511512511511510512510509512514515512514512513513512511512512511512512513511512511513514513514513514513511513514512512513513512512511512511512511511512512511512511512511511511511511513510511511511511510508510510512513512514511513512514514513514510512511512512511513513513512512512513514513511512513512511512511512510511512511513513513511513513512513512510512512514511513512512510510512512512512514515513512512510512510510511513515513512510510511510510511510512513511512512513513511511511512513512512511512512512510512515513512512511513513512512511511512512510512512513514512514515515515512514512512513513516513513512511512512510513513511512512512512514512510514513511511511510511511510511511512510510511511513512512512510512512512512512512514516515514514515514515515513513513513514511509509511509509509511511510511510512510511510512511514514513512513513513513513513511511512509512510512511512511511513513512515512514512510511513513513514513513514513511511513512510511511511513511512512512513512510511510511512512512513512514512512512512511513510511512510512512512514514513512513511512512513512512512512513512512514512515515515513515515513510509509511511510510510510512513512514515515511511512509509510511510509512511512513511514512515512511512513513513513513512512513512509511513512512512512512514512513514516513512510510512510511511512509510511512511512513513512511513513512511512513514514513513512512513513514512511514514511511510512511511512513513513511510512512513511511512512511511513514512513513514513512510510511512512511511511511514512511512511510511511511515514512512511513512513512515516516515515514513512513512511511512510511512514513511511512512510510513513511511513512512512512511512511512511510510512512514511513510513512512512512510512511510512512511512512511512511513512512512511513513515513511509510509512511513512513515515513516513513512512512512513512511512509510510509510511511511514513511510511512513512513513514515513514512512512514513514514514510513511512511511510512511512511512514510510512514512511512512514513511508510511511509509511510512512511514513512515514512512512512513512513514513513513511513512512513514515515513511511511511510512511511510512511511513513510511512513514511509511513513512512514513513514511513512513512513512511512512512511511511510510510511509511511512512513512513515515513513513510513512512513512512512512510511512512511511510512513512513513515515512511510512511511513512513512511513512514514512513511510510512511513512512511509512512514509512511511513512512512512511512512512513511512511513513512513511509512513512511511511511511511509511512513511511512513513514515515518515512512511514511510509513511510510512512511512512512513514513513512513514511511509512510510510511510512511512511512513513513512511513513513512514512512508512509510512512511513514513514512511512511512512513512511511512512512512512513512512512511512510512512511512512510512513511512512513512513511511512511512510510511515512514511512512512511513513512512513513512512510511514512514513512512511511512513513512513512513513512511510510512510511510511512513513512511511512512513515514515514514511513512513510513512512509512512512514513510510511513512511510511512512513513513512512512511511512510512512510510512511511510511510510513514513512513513512511513515512514513514512512513510510510511509510511510512515513514513511512513513511511511512511512512510512511513512512512511511511510511512512510513514515512512512514512512512514515514514513512513511512511511508510510510511510511512512510511512511512513515515513513514512511512513512511511512511514512512512512512512513511510511509511513510512510513511513513512513514512512512513509510512510512511512511511510512512511511512511512512514515515514513513513511514511512510508509508510510509511513515515514513513512513514513511512511512512512511511511512514512511513513512512512511511509510511511509510512513511513511512512511512511511512511512512513512513513511513512511513511512513511512513510513512512511511508510510513512513514516515515515515515513512512512514513512511510510510511512511512511512511513510512512513512511513514513512511511513512512512512514512512512512512511512511511511511510514513513514512513512512510511510511510509509509512512512511514515512512512515514513512512511512511511509513511511511511511511514513511511511513511512510511511513513515514514512513512512512512512512512513513512515513511512512512513511512511512515511512510514513512512511511511509512510509511511511511510512513513512515514513514511512513513513511511511511511510511511509512510512514513513513515513512512513513511510512512511512514513513513512512512511511512512511512510510511509512511512513515514515514512514513514512511511511513511511510508510511512512512513509511511511512513511511512511509510509512511512514513515516513514513511513513514513512511512512511510512512512514513513512513511513511512512514510513511512511512511512512513512514512515513513512512511512509511510510512511512513511510510515512512511512513512513512510510510512511512512512512512511512512514512513511513513511513512511511513513512514514513514513515514512511512512511512510511511511510512512513511512511512511512511512509511511512510511512513512510509509511512511513513514515511511511511512511512513512512512513514513514513514513512512512513512514513512513512513510512512512511512512512511510512511511513510512511511513514512514511513511511512513510512512512515513510511511510509511510511513512511514514514512514515513512514516514513513511510511509512511511511509512511513511511511512512513512513513514514514513514515514513514513511513512513512512512512511509512510510510513512513512511510511510510509512512513511513511512512513512510512512513514513513512512512512511513514512511512511512511512515513514514512511510510511510512511512512511512511511511511512515514514515514513512511513510511510509509511510511511513511511512514515515513513511513512513512513510512510513513512512511513512512513511513513513511510512513512513512512512510511511509513513514513512512511512510512511511511510511508512511514511512512511511513512513512513510511512510512512511513514515515514514513513512514513511513511511512510513513513511513510511510511512513513511511513513511512512512511514513515513514512512512513512512511512511512510510509507508510510511512512512513513513511513512513512511511512510510511512511512511513513513511514513514512514514514511511512511512511511511512513513512512512515513513511513515512512513511511512511511511511513513511511510512515515514513512512511510511513512512512514511512514512514512512512513513512510509511511513512512510512512514513513511511509510511513512513512513512511512512513515515513512511511511514512511513512512512511511511511512509513512512512513513512513515512512508511511511512512511511511513511511512512510512511511512512512512511512510512511512512512512514515513514512512513514512512513512510511512512513510511511512512511511511512515511513511513511513514513514514515517514514513514512512513511511511510510512511511511512513511511512512513513512512510511509510510510511510514513511514512513513515514513513513513510510511510511511512511510512511513512510512511513514514515513512511513511511511512510512512511511511513513513514513512512511510509510508508510511512512511514514516515514513513512512510511511511510511513512513514512512513515512513512511511514512512512512512512513513513512512512513515514514513513511508509512510510512513512512513510511512512512512514512514513513513512511509509509512512514514514513515515513515514513513511511510511512509511510511511512513513511512513510513512511512511513511512511512512512513512512513512514514513510510512511509512512511513513513510512511509512512514512512512511511511512510510509510510512513512513512515514515512515513514516514513513512513511512510511509513511513512513512511512511511511510510509511509510511512513512511515512515512513514514512512513513513513512511511512513512511513511512511512511510510511510510512512512510511511512511513514511510512510510512513513511512511511512511511512512511510511511512511511509510512513512511511512513510512514513515516516515516513513512511512511512511511511512510511510512513512513511513513513512513513511510512509511510510512511512513512513511512514515516512513512512513511510512511510511513513512512512514513512513510512512511513512511512509511511513514512511510511510512511511511512513512511513511510512512512510510513513515515514514516516512514514512512511512510512514511512512513513512512512509511511508510509510510511511510511513512512513513512513512510511511512512513513514513512513513512514513513513511513510512511512510511511511512511512512511511515514513513513511512511513510511513512513512511512510513511511511514513513514510510510512511513511511512511512512512514514515515515514514514515512511512512513512513510510512512511511512511515511509511510510509511513508513512510511514512515511513512511511512512510511509510512510511511512511511511513513515515517514512513513511513512512511512510510511511510512508511511513513511511514514514514513512511511511511513512511512512513514512513512512510510511512513512512512512513512511510512513514513513511512512512511510511512510509511512511512510512512512513512511512512511513510513512512511512514513514514516516514513514511512510511508511510511508509513512513513511513512513513513511513513511512511512513514511512512511511511513512515513512515511509512510512512510510512511512510512510513513513515514515512513515511514512514512512514513513512513512513515512513512511510510510510511510509510511511511511512511512514513513512511511510510511513513512513510513512512514512513514515514512515514515514515512511512509508508510509513512511515512512512512513510513513514515514514514515514513511511508513510511511509511511510513511510511511512512514512513510510511513512513510513512511512513513513513514515514513511511512511512513512513512511513513513511512511511510509512511514514512512513511511512511510512512510511510511509510508512515514514513513513513514514513514511513514513513513512512511511512512511511510511512513513511513512512510510512513513511512511511512513513512512512513512509512512510513512514513510512514515512509510510512511513509510510513510511513513513511514513514513515515513513512512513510511512511511512511512512512512512511512513511511512512515514514512513512512513512512515512513513513511513512511512511511511509510511510511512509510511511512511509511513513512512514513512512516514513515515514512513514513511510511510508513511512512512511513512513513514511512512512512511511512513513512514512512511512511512508511510512512512512512511511512514513514511511511512509509512512510512513515513512515515512513512510511511510513512513512514512513514512511512511512512512512513511510511511512514513513512512512512512513511511512512512511510510511511510512510512511513514512514512511512512516513514513512510513512513512514515512511511512511509511511512510509510510511513514515513513513513512511512512512512512512510514511512512514510512511513513513510510509512512513512511513512511511512510513512511511512513512510512511512512512513511512514511510514513516515514514515511514512512512513512513510511514513511512515512512514511512512511511511511510509511510511510511511512512513513515512511511512510512512515512514512514512512514512514511512514512512513510511511512513513515513511511509512512510511510512512513511511510513512513513512512514512511513511511512511512511513513514512512512512512512510511510512510513513512512512511513512513512512511511511512511510510512512512512511512513513514513512513512514513512512513511511512512514514513512513512514514513511510510511512512513512515509510512511513512511510512511511511512511509511513511514512511512513511512510513512513515513513514512512512512512511511511512512511511512513514515516514514513512510511513510514510511512512509510511512512512511512512512512511512511512513514512515514514513512512511512511510511512515514512512512513512511512512511512511511509511512511511511513515511511514513510513512511513511510511512513513513513513513512513514513512511510512512512512511513511516513512513514512511512513512512513513511511512512514513514512513512512513512511511511510511511511511507510511509511513514512513513513514514513512511511511509511511510512513513512514512513513511511512510512512513513511511511511511512512508513514512514515511512512511508512512513513513513513514512512511510513514512510512510513511511510512512512511513512510511512513512511513512512511511512511512511512512512513512512512514512513514512511514513513513512511510509512511511510511511511512511512511512511513513513515513513512512513513513514510511511511511514510512510512510511512513513513512512510512511511512513511513513511511512511515512512511514515515512513512514513511511511510512511512511512513514512512512513514513515513511512510510512513513512511513510510513514513515513513512512510511511512513512510511509511511511511513515514513514512511512512512513511512511512511510511511511511512516513516515512513515513512508512511512511512511511512510511509510510510512512511513511512511513513511511510512509513512514513514512513512512512513513512512511513513512511511512510512512511511512512510510512512514512514511511511513513511514512513512510513511512510511511513514514512512511512513511512513513514514512512515513514510513512515512513512511513511511510511512513512512510511511511512512511510512510513513511510509508510510512512511512514513513513513512513514511513512514514515515512512511512514512509512511511509509509511513512513514512515513514512511511509509511511511512513512512512513512512510510511511512511513513512513513514512513511513513514513515512514512513513515512513511512511510510511510511513514511511513512509511512514513513513513514512512513511511512512514514513511512512511512511510511513512513511511511511512514513513513513511512511510509509508510510511512515512511512513511512512512513513511512515511511513513513511512511510511512513513515514513514514512513513513512513512510508511512512510511511510512512512513513512512513512513513512513511512511514511512511512513512513511511512511512512511512512510511508510510513513513515515513513512514513512510513511511509508511511512513511511511514512514514514515513514514510511512509511511513512511512513514512512513512512513514515512511510511510510511511511513512513510511511510514512513513511511511510510510512513511515513514513513512511513511511513511512510510511512514512512511513513512512514512511511512511511511512511512514513515515515511514514512515515515512510512512512510509509509511511511512511513513513513512512513514513512512511510510512511512514514511513513512512513514514513512512514513512511510512510511509509509510508510507511512512512511512513512515514515514514516516515514514512513511511512513512511510507511508511512511511514512513513512513514513512513511511509510508511511511510511513513512514514514516515513515512512512511514511512508512512510515513512512510512509511511511510511509511512511512511514514513513512512511513512513513511511512512512511510511510512512513511513513510512512513514513511511514511512513511512514511514512512511512512509509511511511512511512512513513512511513514513512512512512513512511511511512511511514513513513513512515513512512512513512511511511511511512511512511511513512511512514511512515511512512511510513510512511513512514513513511512512515512512512514513510512511511510510511511512511513512515515513514513511512511511509512511512510510508511508511511512512512512515515515511511511514512514512511513512511512511513512514513515513514513515514511513510513513511509511510509512510511514512512513513512512512513511513511512513512514513513509511513511510510509512511512508510511511511513511514513514516515516513513514514512511512510513511511513515513513512511509510511511512512511513514513513511512511513513513512512512510510509511513511511511511512511512511510508509512514513515514515512513511511512511510510510511508510511513512513512513515513515514514513514512511511512513514511512511512512511512513513513512511512513514513513510511513513512512512515513513512513512511511512514513512512510509508510510510510511513512510512513513513512513513513513512511512514512513510512512515512512512509512513511511510511510512511512512511512514513515514512512514513513513515511512514513512512513510511510511513512511512512512513512513511512511511512514511512512512511514512511512512511512511511513513512512512512511511510513512514513512511511512512512513510512513513511514513509511512512512509511512510512510511513512511511511512512512512513513513514515513512513514516511512512511510509510510513514513513513513513512513512510510511511510510512513510512512514516515515516514513513512513513512511511511508510508509510515513515512514511511511511510512511511510511510512511513511512510512512513513513512512511513511512512513511511512511513512513513511514512513511509510509511512512515513512513511512512509513513513511509513512512512511512511510511512511512511513512513513513514514513514513513512512511512510513511512512509511512511510511513512512511513512513516516512513512512511512511512510512511511512510510510510511509510510512512513512512512513512513514513510512513515513514513514512512514512513512512512514514513514513511512511511512511510508509511511511512512513511512512514512515513511512514513513512511511512511512512514513512512511509510510510512513508513511511511511511511510511512510513513513512513515515512513513511514513514512511512512513511511510511510513512510512511512511512512515512512513512513513513513511511511513511512511510508511509511511512512513514512515513514513513512511511511510510512511511510511512512511512512512511512512513515514511514514514511512512512512513513513512512513513513512511511513511511511511511512512511511512512511510511510510511512513514512512513513513513512512513511512511511512511513512509512513514513512513513512512515514513513513512511512511512512511511511511512513511513512513513513513512511512512514511511510508509509510511510510511513514512512513512509512511512512513514512511513514512512512514513512511512513510512511514514513510512511512510511511511510513513513513512513511511512513514512515515514512512511512513511512513512513512511512511512511510510510511512511511511513513511512512513513512511511510511510510507509512514512513511513513514512512511512513513512512512512511511511511511513512513514514512513512513513512512511512513511512512514513513513513513512511511511512513515512512510511511513514511512513511515515512511510512511510511510509509511513513511511512511511513513514515512512513515513513512511510510512512511511511511512511513512512512511511513512512513514512513513514513511511512511510510512512515513516513511511513515512515513515513512514516514512510508510509509511511510512509509511511512512513513513514514514513512511512512512512511510512515513512515512513511510513511511511511512512513509511511508509510510512513514514514514515515515514512511510510510508509509511510511511513513514514514514513512514512511510512509510509513514512512511512513512515513515515515513512513516510511510510511510511510510510511512512511511512512511512512512513512511512513512513515515516514514515511511512511510512513512512512512511514513510512511512510511511512512514512514512510511511513511512512512514512511510509512511510511511511512514509511513511511513511512513512514513513512513512510513511511512512513512512514514514513513514512510511510511511511511510512511513513513515512512510511510512513512513512512511509511512512514514512516513513513512513513513512512512510510510511510512511513512513512512512514511512513513513513509511512511512510513514514513512512512511511513512513513510511511511511511511513513513515515513513510511510510512511511510510511513510511511514514515516513512511512513512513512510511511512512511512511512512513511513512512511510511513512512512512513511513512512512514513512514510512513512512515511510508510511515512512513514510512510512513512513513513515513514512511510509512510511512511512510511510512511516512514513514510511511511513513513511513513512515512512511511514513513515511510510511509511510511511514512512511513514512511513513512512511509511512512512513512513514511512513513511513511511513510512511513511515513512514513511514512511511511512513512510510511511515512512512515515515511515511513513513512513511512512510512512511512511512513511512511512512511513511513511512510511512512513511510512512512512513513513511512513512513512511511510510513514513515513516515513511513513511513512510511513511508510512511511514511511512512512511509510512512512512513512511513514513513511512512513514515515512511511512510512508511513511512512514513515513512514511513512513513511510512512511511512513512511511512513510511511511511511511513511513513510512512513512511515511513513513513513512512512512510513509510512513512512511512512514514516513515515515513513511513510511510510511508511512512512508513513515515514513512512511509510512511512513512514512513511512511512511513513514512512512512512512512511512512511511510511511511509510512511513511510511511513512512510514513515512515514514512512512512511511511511511512512513512514512513513513513512512511511511512512513513510511513513514513514514513512512511513510513512513511509508507508508508511513512512514513513513512512513513514514515513511512515514512512511513511512512513514512511513513511511511510513512513509512513513512512511514512511510512512511509511509511512510510512513514515513512511511512514513513511511512511511511511510514512511511511511512513514513513512511508510510513513513513514512514513513512513514513511513511513510511509509511511510512511511513513513513513511511511511512512511510512513513512516513514513516514511511511514510511512511511511513513513513513512515512513512512512511511510509510510513512512513515514513511510510513512515515514513513512511511512511511510510511512511513513515515512512511511512511513512512511512512511511515511515514513512513512512511512511511512510510511511511510510511513511514514514513512512512513512512511512511513508509511512512513515513513513512512513512512510511510512513512510509511512511513514512513512513512511511511511512510509512515515514514512512510510512513512512514515513511513513511515513513512515513513511512511510511511509512509510509511512512513513512515512512511512512512510510510511512512514513513512511514513513512514512513510512511510512512511512512513513514513512512512514513511512512512513512513511510510510513512508511513513514514513512511512511513511511511511512514514512511511514513514512511510512513511513510511514512511511513513511511512511513512512511512513513515514513512511512512512513512510512511513512512511511512514512512511510510509508509510511512511511512512513511512510511511512513513513513512512512513513510511512510513511512512512512513514513512513512512514513513513512512510512512512512512513512512512511511512512513512513511513512512511511512510513511512511511511511511512511509510512514514515513515515513513513512513513508510510511512512513512511513512515513514515514515512513512511510512512513509509510510514514513513512512512512511511510511512512513510513512513512513511511512512512512512513512513512510509511511510512512510516515513512512512509511513512511513512511513511513514513513515515516514515512512512511512512512512511511511511509513511513511512511510510511511508510510509508509511511512513513514514512513515515512513515513512511511511510511513510511512512514513512512512513513513513513511509511511513513513514513512516513514515513513513512512514512512512512510511511512512512512511510511512514511511511510511509512510512511511513511513515515514512513512512513512509513512512511511511511511512513513513515513512513510512510511511510510511511512510513512512513513515512512513513513511510511512511512509512511512513511512511513512515513515512512512513512512510511511511509511511515511510513514511514513512513513511512509511512510511512512513512512514513513513512513514512510512510512512512511512513513510512511510512511513511513511512512511512514514512513512511511511511509512511511511510513513512514513513509513514513513511511510512512512514512511512513512511515511514515515513512513512512511513513512511511511512512510513512511510512514516513515512512511511513511511510508510510509509511510511511514513513511513513512515514515512513513513511513513511512509511513511512513512511511511510514512513513515515512510511512515513513513512512512511513511512511511511512510510512512513513514513511512510510510511510513512510511515514512513512512513510511512512512510512512511513510510512515514512514512513513511511510509512513512512513512511512512512514510511511511512511512509513512511512513513513512510512511510512511512511512513512512511513515512512513515512513512513512513515513515515512514514512512513512511511510508509506511510509509510513513511512510511511511511513513513513512513513514514514513513513515514512512513513511512513513512513512512511508512514514515513513512512510510511511510512512512511512511511510512514512511512510511513514513512510512511512513513512513512513513514514515513511512511512512510511511512511511510512512513511512513511512511511512512512511514513513509510511513513514514513513513513513512513513513514513511512513511512512513513511512512511511510510511513510511509511512512511512512512513513514514514513514514513513512512512512512511512512512509513514515513512510510510511509510510511507508508510511511514513512513512513513514515513515513515513516514512515513513512511513512512512507511511511511512511510512512512512511511511511511511513512512512513511512512511510510510512513511515512514515514514513515513513511511512512512509510510511512513513513513513513515513511512511513512511511509512510511512509512511514516513512514513512511512512512511510511510511512513513512512515513514511512512510510511510510508509510510510510512512512512513515513515515513515514513516513513513512512511511511512514510513511513512513512511509509510512511512511513514513512513511511510512513512513516512512510512511512511511511511510511513515514513512515514514512511511510509511512510512511510512511509512512514512512511512512511511510510511512512513515516514514513513513512512512512512511512512512513511508510512513511512512512513514511512510510511510511510512512512512514514513513513513514512512512512513512513511512512515514512512512512511511512513511511511511512511512511510512511512512513513512513512513514512511513511513511511511511513511510512512514514512512513513512513512512512512514514511513512511513512512511510511512511510511511513511511512514511513513515513514513513514512510509511509510508512512512511511515513513512511514513511511513512510513511512512510511509511509511511515514513515512511512515512513512512511512513511512512512512511512512511510510511510511511511512511511512510513513511513513514513514514513510512511511511511509510511512511512510513514512512512511513511512513515514511514511510512511512513513512513513513512512512513515514512511510509510511511512512509513512513514514514514515513512511512512510508513511512511511512514511512513512511512512513512511512512512513513513512511513511512511510510513512511513513512511511513511513513514512512512512510511510508512511511510511511513514514515515515513513513512511509512512511513512512513514512512512512510511510510511511510512512513511512512512512511512511513512512512510512512512511510511510512512513512512512511515514513513512512514513514511513512512513512512514512514511509510511512512513512513513514511510510511510513512511512511511512512512515514513513513515513510509510510512511513512511511512516515512513514513513510512511511513511511512509511512511511511511510514514511515512512512512512512512514512513510511511512512512515515515514512515513512513510511511508510510512511512510510511512511512511511511512513513512513512512512512512511512511512513514513513513512512512512511511512513513511512511511512512512512512512511511514511514513513513510511511512512512511512512511510510511512513511512511510510513510512513511513513514512512513513514515513513512512511512511511511512511512513513512513513513509512512511511512510508511511511511512513514514515513515513513513513513512513512511510507511510510511512513512512512512514513513513513511511511511508509509510512511510513512515515514513513513514513513514512512512511512511513513510511514514510512512512511511510511511508511511512512511514512511512513512511512512511512514514511510513512511512509512512511511512511512511511513512513512513512513513510512512511512513512514512511511511511512511512510508511509511512515512514517514511512510510514515513513514511512512511512511511512512513513511513511510512511511511510510510511512512511512515515514515513511511512513512513512511513513513512512512512512511511513511512512513511512513510511511510510509512513512512513513514513512513512512511512512511512512512511513512512512512513512509511511513512514514513511511509512511511512514513511512514512515513515510512515513510511511512512512509511511511512513512514511512511512512512511511512514511511511511510512512514515516514514513512512512510513510512512513512512513512511515511510511510511511510512512513513512511510510511512510510511512511512512512513511512511514513510513512513513512515512513513513510510510512512511511513512513514514512510513513513513513511513513515512512511511511509509510512513511511511512513511513512511512510511513512513513514512512514514512510512512511511511512513511512512511513511511511512513515514514513513513510510511511513511511513513512513512512511510513512512514511514512512511511511510512510509512513512510512511513513515512513513513512513513513513511510511512510513512512513512512511512512510510512511512512512508511512512511512512511510512512510511513513512512512512513514513511512512513513514515513513513514514513512512511512515512512510511511511510510511511510512511512513512514511509511509512510512512511513513512514511511512510511512513515512513512512512513511511513513514512512511509510509510510512511512513511514512511511510513510512511511513514513513513515513512512513512513510512512512514512511510513511511512512512510511508511512513514515515513516515513513512512511511512512515511512513511514512511512513513514512512511510510509510511509512510513511513514515512514513513515513511511510510513512512511511513510512510510510512512515511510509511511511514512512512511511513513513512513514512512512511512512512512511514512512511514512512512514513513513514512512513512512511511510508509510512512513511512513516515513513514515513515513512511511511510512512513510511512512511512510510511511513512513513510510509509510514512514514514510513512512512513513513512511511512511512512511512511511512513513513513514512512509511513512512512511511511511512513514512515512516513513513511512510509509507507508510511510512513512514512512513514514515515513513513513513511511513513511513513513513512511511512512511513512510510511511512513512510513514513510513512513514513512513512512513512511511512509512514510511511511510511513511512513511512509511511513512513512512515513512513514512513515514512511511512512511511512511513513514512513512513512512510511511510511509512511510510511512513511514513512513512512512513509508512511511510512511511511513515515515514514513511511511511510510510513512512512513511514511512511510512514514515514513513513511512511510512512511513512511512512512513512511512511509511511512513511513513513514514516512512511511512511511511511512511513512512512512512514514515512512512512513511510508508509510511512513514513512514511513512514516512514516515514512511512512511510510512511512511513510509510511512511511512511511510512511510511511512515514515513512512510511510510510511513512515513515515514514513513514512510511512512511511509509511509510511513512513514513513513513511513513515515515515514511512513512511510512512513512511512511512512515514512513509509511514512512509512511512512513510511511512512512510511512509510513512513512513512513512514512513513513513511513513511513515514513514512513512511511511510511511511510511512513512513513513512513514512512513513511509510512511512510509511510512511514511512510512513513512512510513514513512512512512512511512511512516514514513512510513511511509511510512512513511511512512511511512513512514512510513512512514516515512512512512512511513513511513513513513514512512511513513511510510511510509510510513513513514511516514510512512513510511510510511512511511512513514513512514511512510512512513511513511514512510513513514514515514511512512512511511510509511511510508510511511510513510513512513513511512512511512510512513514515513516515514513512513509513513512511512512511511512512512509512512511510510512513513512513515513513511513514512513514512511511509511510512511511511513513515510511513513512513514514512514513513514514513513514513513515511512510510513512510513508511511512512512512511513515513513513511512511510511509510511513512509510512512512513514513512512513512513512509509511511513514512511512511515513511512512512512511514512513512512510513511511512510510511511512510512509513513515516513512512511512512512513515515514511512511512509511509510509508508509508510511514512512513514515515515515514515512513515513514512513512512511509511511511512513512515511512514513513513514511510511512509510510510513514512513513511512513512515515514513513513512510513513513512513511512512512515513513511513512511512513510511511511510511511514513515513512511512511512512509509510510511509510512511511512510513510512513513512514513512511512513512512513511513513513514515513513513513513513512511511512512513513511513513510511509512511513513513511513512510512511512511512511511512512511512511511512511512512512511510511512511512513511512512514514514515513513512512512511511512509510511511511510513513511514512512511512512512512511511513512512511513513511511510511511512513515513512514513514513511512513511513513512514514513513512512510512510511511514513513513510511513512512514513513512513512512512511511512511511510511510510512511511513514512512511511511510511511513512511512511513515516515514515513512514514513513511511512511511513510510511508511510510513513513512513513514510511511512513512511513512511513513511512512513512511510509512511512513513513511511510512513511514512512513512511514512512512512513512510510511513512510512512512513512515512512511513512511511513510511511512510512513515514515515513512515514514512515515513514512512513511513510511509511512510510511513514510512512509511512510510511512511511511512513512512513510512511514513511513512512512511513511513512515515515513515512511511511512512510508510511511513513513514511515515513513513511509512511511511511512513513514512512512513511511510511510509510511511511510512512514512515513512512512512513512513512511511511512513511511510511512512512511513512512512514514513513514512512512512511511513512512510511513512514511513510511512512513512512512512511512512513512512511511511512511513511512509510510510510513510512511513511514511513513514513513511511513511511513512511512511513513513514516515513514512513512509510512512512511510510511512512511513513512513514514513512513513511512510511512510509510511511512513513514512513512512513511511512511514511510513512514513512512513513512512512513512512512511511511511509512509512513513512512512511513512512513512510509513512514513514513512513513513512512513513513512512512511509511511510508512512512514516513514513513511512512513511512510510511510511511509512511511512510511512511512512514514515514513511513511511514513511513513515513513510512512511511513511511512512511513511511511512512510512513513513513511513513515513510512509510508510511511511511511512512512512512512515513512512514511512512512513513512514512512511512511512512512512510512512512511512512511511513511511511513513511510511510511512510512510511512512512512511512512514513514512512512514512512510511512511511513512512512512512512513512511514514515514512513514512512512515512509512513513512510512513515512511514512512512510512508508510511512511512514515513512512512512513511514513511512511512512512511513514511512513513513513510511513509511509510512510512512510510510510512510511513512514513513514514512514512513513514513513513511513515513512513511512513510512511512513511511512511514512511513511511513512512513514514510510510511511511510510512514513512511513513513512514510511509511512515511513514512511512512511511511512512511511512511511513512514514512513513512512513512513511511512512511512512513513512513510513515512514513511513512512513511514511510511512510511511513512512512513512513510513510512513514514511510511511511510512511511513513511513515514515513512513513512511513512513511512509511510511511513512514512511510511510512511512512512513514514512511512514514512511511512513511513512510511509510510510510511512512512515514514510514513512513513511511510511508511511509511511511513513512510511512513512515511512513514512512511514512515513514514513512513513516514511511511511511511512512512513512512511511512512512511511509511512508510511511513514514513513514515514514514512512513514512512512512513511513514513514511512510511513511513512512512511513512511514513511512513513515515511511512511511511511511510510511512511510512511510511511509511511512508511514514513510510508511512512513511513513515514514515514516515515514513513512510511509510509511514512513514512512511513515512514513511508509508510510513512513513513513514515514513513511513514511511512509512510511512513514515513513512513512513513511511509511510510512511511511511512510512513512512512513511512512512510511512514515516515516514514512513512512510511510510510510511510511511511511512513511513511511508507509510511511512511511512513513513514513512513513513512513512513514513512512514513513513513511513511510512512512512513513512513512515514512511513512512511511510511513511512513514514512512512512511510511512512511511512511511512511513511510513512514514513512513513513511512512513512513513511515511512511513513513512511512512510510512512511511510511512510512511512510511513512512512513512513513512515513512512514512513513514514513512512512512511513512514512513511514513511510512512513513512509509512510508508509511512512511512513513511514512512512512511512512511512513511512511510510513512514514513514516515513514513511510511512509510511513512512510513511513512513512515513511513512512511510510510512511510513511511512513515511511512512514512513511511514515512513511512512511512511512510512512513510511510510509511510512513513513513513514513513514515513513513512511512512511510511511512513512513511512511509511512512512515513513512512510512510512512513513514512511513512510512511511512513511511511512513513514513513514511512511510509512512510510508510510510512513513514515515514512513513513511513512511511513511512512513512514515514513512512512511514511511512511512511510512512510511513513511513513510511513511511511509511513512511511511512512513513513514512514514515512512515513513515512512512510511512513513514514512512511513513512512512512510510510512510511512512511510511512512512513512511511513512512511511510510511512513513514513516511512511513512511511511511511512511511512511512512513513511511511510511511513510508510511510510511512512512514514514515514515513515515515514514511510512511510511513513514513513512512512511512511512511512512510512512510511511511512512511511510510509512511511512512511511512514513512511515513513511512512511512512511511511511512512513515513512510512511511515514515513514515512512513513511512510512513513511512512515512512512511510512512509511510510511513513513513511512514513513514513514512513510512514512510512512511510512510514512512512514512512511511512513512510510510511513510512513512513513513515512512511512511512511512513511512510510511510509512512513512512511511511512514512513511509510512513515514514515513514514512511511512510508510511512511511513512513512512513513514514515517517516513512513512508510508509510511510509511513511513513513512515513512510511511509511511510509510511510513512513511512513514512514513514512510511511509512510511511511511511511513512514512515513511512512511512514515512512514512512513514514512513512513512515511508512511511510510512514513511512512511511511511512513511510510511512511514512513514514513513512512512510510513512511510509510510509509510512511512513514512515514514512514512511512512511512511515512514512514513514513512510511511511510512510512511513513512510512512513512512511513512511511512511513513512513512511511513514513515512513511512509512512513511510510511511511509511511511513513514515513513511512512511512511511512511513510510510510512515515513512514513513511513512513515513513512511512513511511514512513512512509510507510508510510510511514512514514513512514512512512512511512512512512512512511511510511512513512512512512513512513513513514513512513511512511512510511512512513511512513513515513515513513510510512511510511508509510512510509512512511511511513512513514512513512512514512513513513515512512512511511511513512512512512512511511513512512512512512513515511515514513515511512512511508509509510510511512512513512513512512513513515512511514512511513511514512512514511511511511512511512510513511513511512511512511511512512511511512512513512511513513512513513511512512512511511513513512512512514512513513513511511509509509510508510510512510513511514515515516515513513512512509511512509511510511510512513513514512513512515510511511511513511512512512512511511510512510512512513511511513513513512511511510511511509511511510512513514514517513513515514513511512512511510510513512513510513514512512513515513514512511513511510512511512511511512511511512512511514515512513513512512511512511512512513510510512511511512512511513511510512511513512512510511511514511512512512513513515514513514512512512513515512511511512510512511511513513512513515515513513516512512511510508508509508510512512513514513515513513509509512513513513512513513513513512513513513511512512513514511512513511511509512511511511512511510513509510512513512512511510511511512512514511514512514511511511512513513514513514512512514513513513513510511510513513512510514512512513512513512510513512510512511512511510512512513513514515514517516514513511509510511512511510509508508508509510511510511512511511512513512510513511514512513512511514512513515514512515516514513512512512512512512510510508509510513511512512513514512511512512512512512513511512511510511511513512513513514516516515514514513512512510511510508509508508509511511510512510515513513514512512512512512511510510509511512513512511513514515515514515515513512513513512510512513512513513511513512511512513511512512513512512510510512511510510511510512511512513512511513511509510512512512513511510512512514514513511512511513513514513513512513512511510509510512509510512513512516514514511513512513511511514513512512513513514514513512511512513512514512510511509509510511511512512511513511510509512511515512512513515514513513513511512512509511510510511512512510512511512510510512511512514513512511510512512512512512513512511514512513513512512511513511513514513513515512512512511513513513513511513514511513512514514513512510510509510507510512512509512512513510510512511512512512510512511512512512512513511515515514513514513514513512511510512512511512510512511512511512512511511513513512511512511511512512512513513512514515513513513511511513514513511512513512509512513511513512512512512513512511510512512512511511511511512514511511510512512512513513513512512513514514513515512514514512512513512511511510513512512510511509511512510512511511509510511516513513511510513513513513511512511511512512511512511511511512511513514512512513512512512512510510510511511514511512510511513512512513513516515514511512511511513512512511508511511512513510512512512512513512510511511511511510510511513511512513513516513516515514512512513514512512511511509510510511514513511512511514512511513512513512511512512511511511511511510511512513513512513512511512509511511510510511511512512512513512512512512513514512515513512513513513512513510512511510511512513512513515512513512512511514512513512511510509512512512511514513512513513514513511512512513514514512512511511509512513513511510512513512513513511512509511510510512511511511510512511514512512511513512513511512512512512512512510511510511514510512513514516515515515514512513512513513512512512512512512511511509512512512511512511513512511513513512512511514511511511512511512513510513511510510511511511510510510510511512512512514512514515513513511512512510511511512512511511513511513511511512514514512511513512513512511512512512512511512512513512514515515516514511511511512513512511511510511510510512512512512511513512515513512513513511511511511510512511510512510510511510511512511513512515517513515514512512510512511510513510511511512512512512512512512512514514511511510510510512513512512511515513513513515512515512511511512512511509510510510510511511512512515512512514516514512510512511512511511511510512512513511512510510511512512511513512511513513511513512514513512512515515515512512512512512512511510512512511511511513513512512514513514511511512514514511512511509510510510514513515512513513515513514513510512512512510509509510510511510514510512510512512512512514512511512512512513512512514513512512511512513513513515512512513513510510511512511512510511512512512512512512511511512513512511512511511511512513510510514511513515513514514514515513511513511512511512513512509508508511509512509511512512513510511512512511512512511512511512511512511515513514512512515513514513512513513512511508510511511513514514514511511512511512511512511513511512511508511511511513512510510511513514512514511509513513513512512512514513512512513512510513512512512515513513513512513512512512512512511513512510513512515511512510511511511511511511511511512511512512512510511512511511511512512511510513512514513512511514513515511511511513514512513514513512512514512514512513512512511512512513513512514514512512512510511513511510510510512512511512511513513512514514512513512511512511510512512513513512511511511512513512512511510511511512510511510510508510511512510512513514512512513514513513515513513512510511510510510512511511510511512512512511514512510512513514513514512513513513513514513514513514514513512511512513512510511511510510510508509511511511512514515516514512512511512511509510510511509511511512513512513514512513512513511512513513513512513512511512511512512512513513513513511512511511512512512512511511511511511513512512512513512511511513512512512511511512510509510513513513511512513514515513513515513512513513512512511511512511513512510512511511512512511509508514512512510511510511512512512513512511513515515514512513514513513512512514513512512512512512512511512511511511511512511511511510512511510511511512512511510512510512512513513513514512515513512511511514512512511515513513513513512513513514513515513512511513512511509511512511511511512513512511510509508510511512509512512513514513514515513514513512513511511513511512511512514511511511509513512512512514514514513511511512511513512512513510511511510508511510510512511513515514514514510512512511512512513512510512511511512514513512513512512510510511510511510511511513511512511515513515512512511513509512511510513511511512514512512511512511511512512511514515511510512515513512512513514511512512512513513512512513512512511514512513512512511512511510512513512513509511509511512513512511511511512510512510512513512514514515515515512515515514513514510512513510508510510510512511513511511513513511511510511511511513511512512511510513510512512512511510510511512515513510513512513513513513513513515514513514512512514512511513512511511511511510511512512512512512514512512513511513512511510511511509511511509511511509512513514513513512514513512511512512510511512510511510510511512513511511513512511513511513511513512512513513511512513513513513512514513511511512511512511512512513512513515513514513512513511512513512510511510512511513511513512512514513512512513513512514513511514511513512510512511511512512512514512512510513511513512512512509512511509512512511511512511511512511512511513512512513513513513512512512511511511511510510511511511511511512514515514514513514511512511511512513511512511512511511512512511511512513512514514512512513511513513511512512509511511511510515513512513513514514514513512512513511512511510511511511511511511514512512512511512510513511510511513512513514512512510512513513514515512512510513511512512514512512512511511511512509509511511512512514514513511513513511512513512512511515513513514512513512513511511512512512513511510511512512510511512514513512515512513512510511511511510511512511511512513512512513513515512512512511512515512515512512512512512512511512512512512512512510512511513511509510508511510511508510511514515515514514514512513514512512513514512512508511512511512512511513513513514512512511513512512512513512513512513514512513512511512513512511510511511512510511511512511511512510512512514513512513515512511511511512511512511511510511513514513514512511513515513512512513513512512513511512509512512513512512513513513513513513513511511514512511510512511511512512512510509511511513512512515512511512513511512512511512512512510512511510512512514512513512512515512512512512509509510512512512511513513513512512510513510512512511510510513511513515512514512514512512513513512513512512512512511512510511511512511512512513513513513514512514513513516514512511510511511512513513512512514513512513512510510510512512510509511510510511511511511513513512513512514515512513514513512509510511512510512510511511513514512513512513510512509513512511512514514513513514510512511513513513514515511513513513511512511512510512511510512513512511511510508511510512514513514510514514515513513513513514513511511512510511513513513511511512512512512512511511511512512512510510510511510512512511512513511513513515515515515515515515514511512511513512510511511511510509511510510511511513512512511512510511512513511511511511512512511511513513513513511513514510512513512514512510510511509513513512512513516512513512513513512512511513511514513512512512514513512511512513510511510512510511508509508509510512513512512513511512513513510512511508510510512511513512512515513514513512512512513515511512511513514517514510511510508509511508510512511512512512513511513515513512512512511512513512513513511513512512511512512514512512511515510509510511510510512513511513512515513512513512513512512512510511511512510511511510510512511513512513513511512511512512514515514515513514511513511512512512511511511513511511512513513513513513511511511512512512511513513512513512511514513514515513511512512514510511514512511509512511512511511512510512513514512511512512511512513512513514513512512514513512511509512511511511508510511512511512511513512512511513511512511513511512513513511513512512513512513513510510513512512511510511513512512511512513512515513511511513513513513513511513513510511512511511511511510509512513511512512514514515513515515513514514513514515515514513513511509511510512509511509511511511512511511510511511512512511514513512510511512513513514512511512512513512511512513511510512511512511514514513513515512513513512512513511513511512511512512512512514512511512512511511512512511512511508511512512512511512511512511511512514513511513513511512511509511512512513509512511513510510510508511513512513513511512512512513515514514513514514513513513513512511511516511511509511511512511513512513513515514515513512513512512510512511510512509511510510513512512511513515513511513512513513514513511513510512512511510511512512512511510513512510509512511512513514512513512513510511511512512512511513513512511511512513511511512511513513513512511510513512511515513512512512511510513511512513512513514515513514512513511510510511510511510510514512511510509514513513513513514515512513513512512513512511510511508512512511511514515515514515513513514513513511510509509508509513512511510514514511512511512510511513512511515513513513514516515514514513514513513511509510511512513513514512510512513512511511513512511510512512511512510511511511510512512512511512511511512512511513514513512513511514511513512511512512512513511511511511510512510511512514512510512512513511510509509514511513512511515516512513512511513512512512511513511513511511511512511511511512511513513513512515512514511511512512513513513513514512513513513512511511511513513511511514511510508510512512512512515511511510514512515514512514514511512513512511511513511512514513514513513514513511512512513513512510510513511511512512512512513512512511511512513513511512511513511512509508510511511510513512511514512513513514512511511512509511510513513513511513512511510511511512513510511509511509511511513513514513514515517515512515511512513512513512512510512510510511511511511512512511512512512513512510513513511512512515515512512512514513512512511511511510509509511512510510512512513513512513514514513513515512511513512513513512514513513514511512511513513512511512511509512512511511511513510510510513512513514513512516513512513512512511510510512512512511512512512513511513515515513515511514510509510512510510509510509511512509513513513512513513512512512513512511512511511512513510512512514513513513515515513513513514511512511512512511512512513513511512512511509511511511510511513513512513512511512513513512512511512512511510509511510511511513512512511512512512512513516515513513513514514514512511511511511508510512511513511513511514513514512513512514511511513512512513511511510510510510512511512512511511512511511511511512510513510511511515511512512513511511514512512514514512512513512512511514514513513512512512513512511513512510512510511512511512513512511512510511512512513512512512512513513514514513514513511512512513512512512512512512510512512513512512512513513511511512512511509510512513512512512513513514513513514511510511509509508511511510510511511516513514513513513513512513512510511512512513512513513513512513513510511513509512510511512513512512511514513513514515512513512513512511511513512514513511511512511513512512512512513512513515515513512512513511510511509509509514511512511512513514512513512513510512510510510511510510510512514515513512513514515513513514513512512512510511510509508511512511511508511512512512512512511513511514511514510513511512511512512513512512512512512512512511512511511512512512512514512513513513513515513513512514511513512513510513511512511513511511512511511514513511510511509510510511511513512511512513513512511514515515513512511511510510511512511512511513513512510510511510513514513512512510512511513511512512514514514512512512512512515511512515513512513511511513513513513513510511511511510510509511512511512514514512511511511512510512510513512513513513515513513513512513510510512512513511511515512514512515511511511510510512511510510511511513511514513511514512511513513512512513512514512512513511511513511510512511510511511510509512511513513512512512513511512513512515511514511511512511511510511512511510512511512513513514511512510511511511510512512512513512516515510512514513512512512509511512511512512512511512512512512515512513511511514513512513512511511512512510513513512512513512512511513514510511512511510510511513512514514514512512512513513513512512511511511507509511511512510513512514511513512514512512513513511512512511511512510512512510509510513513511513513512513515515514513512512512512513513514512512512512512512511513510511511511510509510510510514513512513513512513513513512514514513513513513511512513513513509512512512512511511512510511513513512513512510511510511512512512513513513511512512512511512511511511511509512510509514514513514512513515515514511511511512511510511511511512511512513513513510510512512512511513511510510512513512511512514513514514514514516513514515513512511512512512512513512511511512511511512512511509511512512513514513512511509508510512511514514512510511513511513514511512511511511513512512513512511512511512514510511513511511512511511512512511513511511511511512513514514514513514515514511511511513512511511512510512511510510509509512513513514513514513514513515512512512510512513512511512511512513511509512511513513514511512510510511511511512509513511514513513513513510511511511512511509511510513513513513512511512515513513511513512513512513512512512511512511510511510510512511511514513512514514512512512512510512511511511510511513512513512515515514515513516514514512511511512512512512512511511511512511511509509509510508508508511512512511512514514515514514515511514512514513511513513513512510512510512512512513512510514514514512514512509512511508512509512508511513512512513513515513515512514512511511511511511509509511512513512512515515515515512512513512512511512510512510511510513512511511513512512513513513513512511511512512511511513512513513513511512512513513515511511511512511512510511511510510515512511511513513512511512510511511513512511514513511512511512512512509514509511513513511511512512515513513511510512512513510512512514512513513515512512511512512511512511509511510511511512512511512513512512512511512514513515511514512511511512511514513513513513511512512510511510512513511510512514515513513514510512511512511511510512511510510510510512510512509511511511507509511511511512511512515511511512512514513515514513513512511512512514511512514513515514513513512513513514511513511511512514513512513514508512513511511511512510511510512512513512513513512511511510509511511514511512512513513511512512513511510511512512513512512516513514514512513513510511512512511512511511510511510511511511511513513512512512511512509509510510512512511513515514513513512513511512512511513512511512511514513512512512511511511511511512512509511511512513513514514513512510513515511511509511513513512512512511512512512512512515514511512511511511512513512515513513512511513512512513511513510511511512512512510511512510511512511512510512514513512513512512513512511511509509507510513509513512512512514512513513513513513513512513510511511512512514511512512514514514512514513513511512511512512511512512511513511511513511511512511511510511511512512513513513515512512512511510510512510512511513512513511512511512513514512512511510511512510510511509512512511515513510513515512511513512510511511513512513512514513512513513512514512511511512513514512511513511511513511511512511513512514513514512510511510512512513513511511512512512512511514513513514513511512511510511510511511511510512511511513511511511514511510512511512513511512511511512511511512513515512513513513514513516514514513514513511512510512510511510513512513514513514513514513512513511511510509511509510511513512512511514512512513513512512512511510509509509509511511514512511512513514512511513511513512512514512513513512514511512512513512512514513509510510511509510509509511512512513514514513513514515515514513515513512515513513511510510511513513510508511512514512511511512510512510512511513512511511512511512513512512515513512511511511510511511512512512515513513515512513511512513512512511511512512513510510512512511513512512513512512513514512511510511510511511510512512513514511512512513514512513512512514513512510511509511512508508512513513513512514514512511510512511510511511514512512513511513511513512512513514514513511513512511510511508511511511514510512512513511512514512511511513511513511513512513513512511512511511511514511511511513510513511513512513513514512514513512511515512513514516514515512511511510511511511511510513510511511510511510511511512512514511511511513514511510511513511515512512515515515515515514513513514513512513513513511512511514512513512511510510508511513511508511513512513513511511512511509510511512511511512511512512512512510512511511510509510511511512512513515515513514515514515513512513515513512513510511510512509512511511513511510511511511512512513512512512511512513513515512513515513515515513513512511509512513514515511513513513511512511512509510510512509511511512513511510510510511510514512512512511512512512512513514515516516513512512513511513513512514513512513512512512511511509512511512512511511512512511510511511513513511511509510512512511514513511512511512512512513514513513513512512511511512511514515514513512512512513514515512512514512512513513511512510512513511511511510510510510509508509511511513512515513513512516513512513510510510511513512514514512514512512512511511511512513513511511510511511513510512511511511514512512515512511512515511511510510509511510510512513513514515513512513513513515512512511511509512509511509512511510510509514512511513513514514515515515514512512512509510513512513513513513512513512512513513511511511512511509512513511512512512512513513512511512513514513514513512511514513513512513513513511509510512510510508511511510511511512511511512511510513514512512513513510513513513513513512513512513512511512515514512512511512513509510511513512512511511512511510512512513513513512513511512512513513512513511512512510510508512512515512513513514512512509510512512513512511510512509512513511513514513511512512512510512510514510512512512511513514512512512513513513513514512513511511513512513514512513512512513515512513511512511510511510510510509510510509508512511511513512513513512513513511511512516514510513513513512511512512513513513513512511512512512513511512511512512512510511512511513511514512512513512509510511514511510511511508510510513514513513515514512513511513514515513512512512512511512510512509512511510512515513512512512511511512513513513510514512512514513513514514513512511511512510511510512510508507510512513512512513515514513515516512513511513514512512511509512511511509510510511511514512512512512512514511512512511511511513514514512513511510510508511510512511513512513511513511511512515514513513515513514513511511513512511512513512511512511511512512512510512515511511512510511510514512512513511510511511512512513512514514511511512510513511514513511512511513515512514512512513513513511511511511511513512512512513513511511510512511514513514514513512512511513508514511510513510509512512512511512512512512513514513511511510511509510511512511511511510511512512513514516514512513513513513512513512512513511513515511513511513512512511510511512512512511513513512509510509512511512512511513512513513511512511511509510511510511511511511511514513515513517515514514513514513512512512510509511512510510513511514513515512514513515514513512511511509509511510511512513512511512511513513512514513512511511511511512511512512512513511512512512514513512512513514512511512512513510509511510512512510511511510512515515513512512512510511512513512512512513514515512512512512512513510512512510511511512511511514512511512511512512511515513512511512515511513512511514512513513513513512513513512512511511511511510508510510511512512513512512513512513514514514515511512511511512512513513512511511511513512512513513514512513513512512511511510511511511510511510513511512512512513512513513512514512513513512510511511512511513511512514514512512511512512513512511509511509512511511512513512513512512512512514513512513513509511510511510511512511511513514513513513513512512512514514515512512515515514515514515513513512513512512510509511509509508509509509510511509510513512514513515513510512513513513513512514512512514511511511511513512512513512513512514511512512512512514513511511512511511510513513511512514512514512513513510512510511511510512512513515514515514514512511512512512510508510508511513512513515512511512511513515513512512511512512510511511511512512511511514514512511511511511514515512513512510512511513514512512512512512511512511512511510512511512513512511510512513510513510510514512512513512512511510510512512512510511514514514513513514511513512513511513512512512515514511512512511511513512510511511515514512513512511511511514514513511510513512513515512513514512513513513513509509511510510511512513511513514513513514512513512511512512511514512512510510511512512509509511510512512513512512512515511511511514513514512512512512512510511513510513513513512511511513510511511511512512512512511512512512512511513512513514514513512516516512515513513514513514511511510510510510512511511511513512512511511510510510512512510512513512512512513511512514512512511511510510511513512515512514513515513510513513512511511514512512510511510511512512513512514513514511510510512512509513512511509511513513511512510513512510511511509512512511512514512512513511511514511513515514513514514516515514513513512513511510512512511512511512512512511515511511512512511511509512510512512513513513512512511513514512512512513515512514511513510511510511511511511512511512512510512512513515512515512513513511511510511512511513510512511511512508511513511511511511514513513513513513513515514512513510514514513512512512512511511511510511511514513512512512510512514512512513512513511511511511511511510510513513512514515514514512513509511509509511510512511513512511511515513513513514513512513512512513512514511511511510509511510513513513512511513512510512512511511513512512512514513510512515514516512514515515512513510512512513513513511510510510510510512512514513515513513513513515512512509511510510511512512512511514512512514510512512511511512514512509511511511512512512510512513515515513511513513514512514512513512512510513513511511513511511512512511511512513510511510511512510510513511512511514514513515512513511510511510511511509511512512512514513515512512512511513513511511511512512511513512513512513513513513514514513512512512512512512512513510511512511508512514511510513511510513511510511511512512512512509511513512514512514512513512512513511512513511513511513511511512510509509512511512514512510513515513513511513511513511512511510510511511513513514513513512512510512510511513514512512511511512513513514513514513514513512514513510513510510511510510511511514513513512513514513513512514512512511510511509512511511512513510512511513512511512511512514514512511510511510511510511511511510512515514513512512513513512513511513513512512513513513513513512512509512514512512513512511510512509512510514513512511512511511511511514513515513514513512513513515511512510510509510511514512513513511515512514513513515513512510511511511511511512513513513514514515511510511509510508510510509512512511511512513515514515513513512511512511512509511511512511510512513512512513514513511512512513513511510511511510512512513513513511511511512512510511513513513511512511512512512511511512511512512510512514514514512511515510512510511510512511512515511512512513514512512512512512512511512513511511512511511512513510511511511514514512511511514512514513512511511510512512512513512512514511511510511510510510510511512511511512511511513511512514514514513510512512511511511510512512513511512512514513513513512512515513511511513512512511512511512512512512512513513513513513512513513515515511511512512511510511510511510509511511514511512513513513514512513513515513512511512509512509511511513512511512511512515511511508509510510509511510511512515514513513513512514512514514513512513511513514514512515515514514513513512512512512512511510510510509509509511511512513513515516515514513513514511511513511511510509510511509510511510512512512512511511508513512513515513512513515511511514514514515513511511510512512511512512515510512512511511511510511513511511512512512512512511512511512512512514513512513514514516514517514513514513512513511512510511509509507511511511512513512511513511512511510512511512510510511511512512512510511513512513512512513512512514512513511512512511512513511512512514513516514514513513511512512513512511511512511513510511511511511512512513513512512511512512509512512512513515512512512513512513513511513512512513512512511512513513511511512512510511512511513511512513511513512512510512510509508510509513510513513514515514513511512513511514514512511512511513511512510514512514513511512511512512512513513514513512511513512511510514512514514514512512510511508510508510508510510513512512511514515514513511510512512511510513512514513513514514511511512511513513511511512512512513512512512513512513512515513512513511514515513511512511508511511512513511512513514511512511513512511510509511511509510512511515512514512511511511512511511512512512513512511512513513512512512512514514513513512515509511512513512513514514512514513512511511510510511511508510509513513515512512512511512512510513513511510510510513512512512515514514514511513512511513512512512510513511511510511512511514512514511510512513514512511514511511511513510512511513512512512513513511512511512512512512511510510511511511511513511513515513512513511513511512512511512511511511510510510513511513512514514511512512511512512513512513514514512512510513512512511513513512512513513511512514515512511511513513513515513512513513513512513512511512511512512512510509510511512510510512511513514512512512514513511510512511512511513511512513511512512511512513513513512515513513512512512509512512513512511513512511509509512510512512511512511510510511511511512513512512514513512512512513513512513514512512513511514512513512512514511513512512513512510515511513511510511511510510507510511513512512511510511514513514512512512511512511513512512515513514512511511510512512513513511512512511512510511511512515512514514515512512512512512512511510511511512511510510511512512515512513512512510513511513512510510510512512510511513512512514513514514516514514514515512512510511513513512514513513512512512511512510511510511512511511511508508510510511510511510512512512513513511514514510510512512512511512512513512514515514516514515513513512513515514512511512512512511512512512511510510509509510509511511510511510511510514512513513514515513515513513513512513513513514513512511513513512512512511512511514514513510509512511511513511512511510511511511509512511509510512514512512514512512516512512511512511513512511510511512511514514513514512515512512511509510510509510512509511510509514513514514515513512511513512515510510512512512511513514512514513515515515514512512512511512510509509509510510510510513512513513514512514513512515513512511511511510510511512514509512512513514513514512513511510512510511509509510510510513513512511513512512514513513515512513513513511513513512513512513515512514512511511510512510511512510512511510512514512512513514512512509511512513509512511512510510510510511511511513512513513514514511510512512515514513512513513513513513512512512515512511511511508512512512512512512512512512513511510512511512512512510512512510512513512513513513511512512515514515514515513512511512511511510512511513511510512511514513511512512512512511511513512511512511512512512511512511514512512512511514511511511511511512510513511512511511511511511513513513513515514514511512512511512512511511511513511512511513511511513512512510511512510511511512512512512508511512513515513513512512513513512512511515513513512512509510512513514513513514515514515513513511513512512513510510509508510512513513511515513513514511510511512512511510511510509509511511512512513513512513512514514514513514514514512512511511510509510512511512512514514512513515516513513510510511511512511511511512512511512512511514513512512512512513510512510512513513512513515513513512511511510514509511509512511508511512512511510512513514513514513513513515512515513511511509511510512512511513512514513511512513512512512511513513512512512511511510510512511512510511513511513511511513513512512511511511511510511515513512512512512511512510510511511512512512512511513515516512514513513515513513511511513513511511511511512511512510512514512514512513512512511513513512510511513510509510511511514512513515512513513511512511512513513512515513512512512511512511512512512512511512511511509511510511513511510511512511511512513514512510511512513512511513512512511511511510514513513513512513513514515512511513513514511512512510511512511511512511510513511512512512511510513512512511511511512512513514513515512513514513513514515512511512511513513513510512511511510509508509510510509510511513514514513515512513511513512513513513512515512514515512510511513514512513511512512513513512511511512516515513513513511512511512510512511510509508511511510512510513514511511511510510511511512512512512513512514513512512513513511514515514514512512511509511510513510511511512512512513514514515514513513511512511511511511511510513511510511509511512512511511511512511512512512512512513511512514514513514514515512512514512511511511510511510511511511512512510512512511512512513513511513512512512513513512512509510513513512512512514512512512512512510511509509513511511511511512512513513515518515516513513514512511512511513511511511513513511510512513514511512511512512509509510508510510512512513511512511514513513512515513511511512513513511512512512512513512512511512511512510512513512512511513512510510511512511513514515517513513515512513512510511512511511512514512514509510511511511513513514515514512512510510510509511511510511512512513514513512512516512511512511513512512510510511510511509513510512512512512513513510512512512512513513513513511513512512511514511512513511511512513512510510511513511512510512510514515512514513512516513515513513513513513512511513513512510510511509510510510512512511511511512513511511510513509508511511511512512511511515513513514512512512513514513515513512513513513514512511512514512515512513513512513511511511512510512512511511509508512512511513511512513511512512511512511513511513513510510511511510511512509512511511511514514512513512512513512511512513514514513513515513513513512513512513511512510511512512510510511515512513512511512513512511512511510509511511513512512512513513511513513513513512510511512512511512511510510510510513513514512515515512511511513512512514510513512512515512511514512512512511512514513511512512511510509511511512512510510510511512513513515513512513514515514511515512510510511511511514513514512514511513515515513513512513511511508511509508511512512512513512512513514513512514511514512513509510513513511512512514512513512512512512515512513513510511510509511510510511511512510511511511512512512513512513510511512513515511512514512512512512513513512512511512509509509508510510510513513514513515512513513512512513513514512513513512512513513512512513513513511511513512512512510512511509511511509510510510511512511512513512511513511511511512512511509512512511513511513513512513512514513512512512513511514513511512512511511511511512511512514513513511512511511513513512511513512512512511512511513512511513512512512512511508510513509510511513514514515514514514515514510512512510512511511510510511510510511511513512513511511511509512512511514512512513512513512512511511513513512512511513511512513512512512512511511510511511511511511514511513512513511511512513512513512514511512510511510509511512512514513514513512514513511511510511513512513514515514512513513516512514511510511511511513512513511509511512513513513513512514512512511513515512511512510512511512510512510510512512512512513514514512515513515513514514511512511511512512511511510511508510510510511512511511514513513511512514514514512512511514512512510513513512512512513513511511512513512512511513512512514514512513514513514513512512510511509511512510511510511511511512512513513512511514513511510511510511514511512514512514513512512511513513513513511511511510509509511511511512514513511513510512512512512513512512510509511512512512512513512514512514514515514513513511511513511511510512512512512511513514513515511511511515511512509510509511512512512509509508516523514508505511513509509512517511508510512514518511508511512515516509511510511511512515514511514512513515513512512513510510512514510512513511509512513512511511510511513510511513513512512512514512513513516514512513511512512512511511511511511512512513514514516512512512513512512510511510509510508512511513510512511511510510511511513512511511510513512508512513513517514516512513516514514512513512512512512512512512512511513514511513512510511511509511510510510509507510511511511514512513514514512513512510512512513512512512513513514511514511511512512511512513514514512512513511511511509512512510512511511512511511512514513511512514514515512512511512513511513512510513512514512511513513513512510510508510509510511511512512512513512515514515515518515512513513511508510509508511512512511515514512512511512512511513514512511513513511513514513512511514512510513512514512514514511512511512510509512511509511511514513514512512511513512514511512511513510511513512512512511513513514514512511510511512514513514515511510511511511513510512511511510512512512513511512512513512513514515512513514515515514514513511514511512510511511509512510510510511510511511513510512512512512512514513515513513514515513512514513512512512511510510511511510512511512512508511509510513511512512513514513513512514511512512513512512512513512513516513512512512512510511512513514512516513513512510510510511509510511511510512513513510511512512512510510511510510512513514512513515514512512513512512511512512513513512511509509511512511512512512514513512511513512511508513511513513512512514512512512513512514512513513514513513514515513512511512512510510511509511512511509512512510511510511512511513511511510511511512512512513512513513512512514512512512512513512511510513513512512511511512511512513515513512510513512513513512513512511513514510512513510511511512513512511512512512512511511511514513512512512512514513511511512512512512512511511513511513512513512510512512512511511512513512512513511512510514512513513512511512512513512512512511514512511511512511512514512512510510515513512514512513513513510511508509509510508512511510513512511512512515516515515512513512512512512514512512511513511514514513512513511511511510512511511512510512512512513514511510510511511512511512509511512512512514513512511513514511511511512512514513513515513512511512513513512512510512513513512511512512513511512512511512512512513513512513513512512512512511510510509510511511513513511511511512513512512510508510513513513511515516513513513512511512511512512513512512512513511514513514514513513513512511510510512511513513511513511510513510513513513513511510512512511512512513511509510510509512512511513511514515513511511512512513512512510513515513512512511508510510511516513511511513511512510512511514512514513513515513514513517516509505510515511511509512510511511512513509508512515511509510511512512513511512513514513514511511510512510509512513513513512513512512511512512513512512511512511512511513512511513515513514511511512512510511509512508511511511510512512511512514514514512511512513512512512514511511511512514514513513513513514513512514512513510512510511510513512511515511511510511511512510508513514512513513511512509511512511512511513515513514512512514513514512512512511509508510509514513512515513512513514512512514512512512512512511512511515512513509510510508511512512513512512512511511511513512512511510511511512512513512512514513512513512512514511511515516515515512512511513516515513513511512512513511511511512511512510510511509511510512512511512511513511509510510512513511511512511513511512512513513513512514515516514512514512510511511512513514512512512512514510511511508512510512512512511508510510510511513511513512514513514513512512514512511510510509510511510512513513512514515515515512515513513512513515513509512510512512510512511511510509511510511510510510511510511512511511512513513512514513514514515515514515515513512512511510511512510511510510512511512511512511512513513512511513514510511512512511512512511510512511512513512512512512513512512512510510512512511512515513513513514510512515514513514516515513511511513511512512512513514512511512510510512512512510511510510509511511511513511511513511512511512512512512512510511511511510511514512513515513513512512509512512512513511511513510511512512512513511512513512511512511514512510512513511510512513511514512512513511510511510510510510511511513511512512511512510512512512514513514514512511512510511514516512510511511513512513513512511513512513512513510510513512512513513515512513513511512513515514513513511511510514512512512514512513511511513513514514510513513514511510510511512510512511509511509510509510511511509512512512513514513515511511514512511511510512512513511511512511511511513511511510512512512513513514512512513511511513513513513516516515515517515515513512512513512512512510512511511511510511510511510510510511512512512510511512512512514513513515512515513512511512513511511511512512511512511512511513512512513514514514512512512512511512508510510510509510512511513513514515513511513512511511512513512516512512512512514512512513513511509511510512511513512512511512512512512513511513512512511512511511511514515515515515512513512512511512512511511511512513513514513512511512510510509511512511510511510513513511513513513513511512514510511513513511512512510512512511510512512514512511510511510510511512510513512512512511513512514514514514513513512511512513515514510511510511514512511512512512514513512512510510511513512512511512509511511511510512512512512512512514513513512510511511512510508511511513511511511514513512512511512514513515514514513513511512511513511512514515513514513514512513512513515513510512507510509511510512512512512512511514514513510511508511510510511511510511513515512512513514514513513512512512511512510511508512512511514513512515511511510513513514515513511511511511511510513512513512513515515515512511511510511512510510510511513512510511513513512513510513514511511514512511512513512513511513512514512512512512513515514513511511512511511509511511510511508510510511513514512515511511515511512512511510511513511511513512512513513512511512511509510512512515516516513513513511509512512511514512513512512512511510510511512511510512510511511513515515513513513513511511512511514510509511508510511511511511513512513515515513512511513512512511513511513513511513513512515513512512510511512512514513511513511511513512509512511509511510511511513513512513512513513512510509511512514514513515512513513513512512511512510513513511512512511511513514511511511512515512514512511512510510509511511511511512511512508510511513511515513515515515513514514514513514514511511512510512511511511512509512510511511511512513514515512512513514515514514511512513511513512513511510510513512512510513512