508506508504509512511509513508512515513513514511511514513513513509511510511513514512511511512512513512514512508512515517511510510508510507504511513515513509510508513517518516513517514512513508508514511507508512511512512512513515517514511514513514514510512512513512509512512514514512512517515513512512509511510508507511512512507506507510513515517519519519519518513513513511511516514513516513513509511513513515517517511512515515511507509508511509507507506509508512512514519519513505509512510511510511511512515512509508510511511513516513515513513512511503504509511508508507510512513512512513514513513515511510511510513513517517514513513512515515516511512514515517512513511511505506509511510512512511510514515514513515513510510509510508516513517517512508507508511512513510513515515515512511512513511510514513508505506508511515519516517512511512510508509509510513512514512511511512511515515514515516514514513509511512511510513515515511512515511513516512516518514518513512507508511510511514511512510510509511511513516513511513511506503505508508512512508506512514512515516516513514512512511514513505509507510507509508511509511511516516510515522516509506511512511513512510510511510512515513513512514514517512512513512511512511514512512512512512513516516513512513515515511510513511510512510508511512512512511511514515516515513512510511511507510515513510507512512514515515512512510508509512512512508510510510506507508509509509511512513516513511512511515510512512513511511508511510515516517514514516518515513514515511513512515511513511512510508510510510516515515511514511513511511507511514517514511510509512514512511511510513516516513514511508509511506510510512507510512513516515514511511514518512511509509509509511511512513512515515517515514512513512510511511509509509510513510509509511514515515518517513515512507507509508513510512511514515517514513519518510509511511515512510510510509510511510509510512513512512514513512511512512514514512511513510510510511511509509511514514512512513511510511513512507512511511510515512512511518514511512516514515513508510510506508513514511509508512513516515514515515512512512513514513515510511510508505510510511511513515515513512511518517513512512509507512510509509509509509514512513518519515513511510512510513512512512512513512515513518514511512512509511513514511513511505506508508508513513511511516515518516513508517520519513503505513513512512513514515513513512515512510513516513509505512510508508513510511509515516516515515512512515512511515512510512518518513510507507510514514515516515514512512513511509511510511507505507507512518518518516514511514515511510510507507503506512511508511510510511509510515515514515513511512510509508513513512515516517516519518513516513515516515508508505507512513512510516516514512512511510510507507510510511510510513512512510510512510512513513514513513512514513511509509508510510511508507510512511513511509512517515509507507513509506512513510511510517519516515514519518514508508513510510512510510510516519512512508515518515512515518516517519511510512512513512513511514511511510513514511513516513512511514509505512513509512510509511512515513513510513518513510512511509509511517516512507507504511514517517515514515515511510512510512511511508511512512511511515513514513512512508509511512510512507508513512506507510512514514512515514515512511511510513512511512508510513512515514515516513511513512513512509509511511509510512511511507510511512515512514513515513511511511512509506511513515513513511515516517515516518519516514513509508508509508510510509506510512513518516512512515514510511511511507507509508512514512511510513517512511508512513512508510513513511514516519513512509509511513515516517516512511512508507506511519516513509506511514513511516518513511513514510509511510509507508510509510509512515515515517516517516514513516514509509510507511510511511511516518515515511513512509507510511507506509509511512511507509513515512513512515513514513514512511510508508510509509511514513516515516511516518526519511512514515510507507508506507506511514510516511512508513512511512512511510512514511513512512513516515517514512514515514511512511512511513515514508513514513514512514511513511509508506509512513509513508507508512510515519516515514513515516516515513510513515509509510509515516514516516515513516518517512511509507508506510512508508513513512513512514513514515510510516513508511516516511508510510509504510517513510518511508510510511511511515514515511510513511514517515510511513512513513516513511508512512509505509507508509511515514511513512511512511510512511514511508505504507506512518517519512512512512515512515512510506511511513516514514512515511513512514513512512509511511509510508510506503508513515513512518516516517514512510512511508512513513512510507514516514512514515519518514512510513512510510512510507509512513513517513511510512513512513512512509510510511513512507511511512517519517515515513511510508508511508512513509508511512510513515511516518515513515512508510513511511514514510507509511511512514512512515513510514515510505511507507513512506508513511516516519515513513514518518513508507511511510512512515515519516512516516514512512508506508508506508507507510512513510511517512515513514513512514515513513508510510511512514513513516515511513513512512510511510508513512515515511512510510512513516516515512514510509512514513511510507508509510510511511511513511512509511512510513513512512512515512509511511513515515516518515514509507508508511511504507515512511512513514514515521517512518519517513514513512511511513513511509512518515515517515514510514511511512510511506507509511510510511512511513512512514512511513512512510511511509512512511507509508513515519515514514513515516512511510508506510517516513511512511518519515513512512508508513510511509510510512513511512514515515518516517515514515512514512510510509513509510510511508511514516512513513514512511510508507508511514512511510512512511509512512513510513513513514511508509505509512511512515513512513519515518515512511511511508513515512515512510509508508513514515511514519516509511513510509510511509508508507507508510508513513513511513510513512508510513516514512513513511511512512515515517516519516513511509509512512514513511508510511513517514514514515518515516512510508509508511512515516514513515511512514517516517512512512508509510512512509508506508510509513515513513513512512515515512511513509507505508510511512510511513512516515517514512513511510512508510511512512508512512512511513514511513516515511510511511510511511512510506509512514517513515515516513512511511514513513512512508508510513512512511512513513514512513513516511511508505505513514512511507513515513512515515510510511511512513509512508513511512515516517514512515515515515512511510508509506510509509509511513512516515515513511513507507511509504508509511511511511511511513519517515516513513512511513509508511510513513513513512514513515516512513514512510513511506509515508511511510511507509512514518512515514518515515512508510509510511510514514511512509512519518515512513515519514511510511512512510508507509511509511515515515513513514511511513509510515516509511510513512512512515512515513513511511510510512513511510508511510510510509512515512512512516514515513508509513510510510512515512507506512513513515511514511511511512509512512513513514511510512511513517516516515512511512511507506513517515514515513508512512515519520519513514512509509509511514511513512513512507510509513515514516512509510511509508508510511512511512512513511511515515513513512514514515513511510509510510510510514511511509515515512515515516510512511511508510509511509511510508515515515516517517513514512511510508511509509508508511509511510512518516513513516517515517515512507504505509508509508510512512515516515515513511510511512514511510513511510512511513514514519516514511509512511511512509508509511516518521515509508512518516516517512511509510509509512513511513510510509511509513517519514511511515515515513512509510512512511513511510512513515516513515514516512510510510508510511511511510508508509514519515515514515514511510512510509509506505503505505509508515516514512518520521512513515511505510511509508511510508508512516515515513513513511510507505509513512515515518509507510512514515511515514513513510512508509512512514513513509505510515514515511513514517515516512505505507511514509511513510507512516515514510511516514509507507506506508519526518517518511510514515512511510512512513511511511510510510510510509513513512515516511512516518512512514513510510512512511510510511512512515512513516517514511510511509509510514512511511512511512515514510511512510515519514516511506511513516510508509511509512515516515512512513511513511511509510510508511512509509512512515520517518511511515511511511509515514510508511509506508510515514510510508511510513508506510514512513511515512513515517516519518517512513512512513513513514511514511508512515511511512512512511512509513515512513513509509508509511511511512512515515513512509511509508508510512511511516513513511511510515518515514520517515513515514508506508509509511507506510511509510512511511514513510512514511508509510512511509507511511514515517516515516510515514509507512511509514514514515511511511512512511514515512506511512512511515512510507508512512511511512513513517514514513510510510510512515512515514515514514513515516519518517513513508507507511511507511508510507510509513515517514515516515511514515509507510510508511513504507519520515512511511509513517518513512511512514512512514514512511512513510511515509511511513511509508506509509510511511512515515512513511516513511510511510510509508511512510512511509513514518515516517514512512516511506512513507508510513514512510511512513512516514513512512510508509511511512512511510512511512514515516517517517513506504507509510508508513511508510513511516519518515513513512510514509505508512513509512509513512515517514510511513518513512510506507508511508510511510510513513514515517513515518517515514512514515514515512517515512512515516514515518516515511514512510509511506512510505509512515514511513513514514515515512511511508509510509508505505508510515512516522517515515516514513510506505509507508510510517519512510511515514514514511510511512511511509512509511510508510515519515513514514515511511515517511511511512511509508510513511508510510511511508508508505504506506508511513511510519515515519518517511511514513511513513511511510508508510509509510512513513511515513514515512511510512511507511511512510511515519514514515517515518515511511509510513511506504508512516512512518518515515512514518519511506506511512513512515512513514516517515511509512513512508510513507507510510510507508516514516513513510512510508513511510511512511512514512511514512511514514515513514514513515512511511512510510507505505506509511514515518513510511511512511513512511516512511511510508512513514516514511515514513514515513511509508511513508506508510513512514515515516515518511504507505506509512514512511514513509512514515516517515517514511510508510510511510508511509510511513513512514515513514515511510509508505503508508507507509511513514516517515512512511511514513510511512514512516515513518520519516513513513511508511512510508514514509508507511512512516515512514514516513513511511510512512512513512513515514515514516515514512511511514512508509508507510511512511508511516513510511512514511512510510507509511508510512513512515517512512511511511511509510508508506508507503504504505506502503512524539543535539538525514508508504503508505504505506505506508512511516518522519519515516515507510519515516519519518517514513510512511508508509506511510507511511507497499507510503504518527526524524517517513510508510507508507507506509507510511513513514512515511505510512510512513509508509510512512512514517516515513512510513511512510510511510505508508510511511511512515514515515509512513514510509512511507507505509508512519520519515515511511506510512513510510511512512512512510513514515512521520520519515509510506504504509509510508511515515509516516508512517512512512510511511510515514512507506507508514518518516512509508508502506510516519519513511516520514515513514514513513513512518513512513511515514512513511516515512516515511513514513513512511508506504510510509511507510510510511509509510512518518510507507510511508507504506511512513513512515519513511512514513509504508506510513511518515510512514519523515509509512515516513516516519517512514514510506503511510508512517519518513510510510513508508511511513511512512513513515514516519515513511508503504506509510508512510511511513514518518515517519515515514514510508509513512512511511509510511518518513512514513513511512509503506512512514510507510511512514509511512517514515515512507506509509506509511513512512519519517515516513509508508511512512515509508508509507509510512513513516512515514513511510515515511505505512514518515512511512514516520515516511511515514511512513512513512514515518517513511508508512510515512509511509511508512514513509511511510513511511510512511511512511510506510512511509509510514513514518518519516513511511510511510506511507499505510513510512515518519519515518513512513514515512511513512512510509508513514517515514516512508509512510509510508509510511509511511511513514514514518517512511512514512512512513512512512513512515514514511509511517514509509508506511514518514513514511511509511509513513513512510511511511511508514515512506506510511510514514512515513517520519516512506503506508508508510512511516513515513511514515511512510510512508509512507509514512511515516516518517516518519519514508504505508510512511508510511509511512511513513513513515513514510509514513512511510513512507511512510515516518514514511503503511512511509511509511510512517521519514512512511514508502503508508513514511509512509510514512512518518516511513511516518509508510506507510512512514514515512515516519519517515514513511511514511509509511511510511513514514513514511511510512510508509510508509512512514511511515515518517517512511509510514512511508506511511514513513514513515516518514511515512508508508512510508510512510509510515518516517518516515514513508509515513512512511509510509513515515512515516513513512508510509511512511508510510509508508512517518518515514507510512513510508505511514511508507512514514512516514513511507509509509509508510510509511513514513514514513512513512512514515511510509507507514512513512513513510511511512513513512511509509511508504503507508508511514514511511512512513516515515515514511513510512513512512512512511511514518518516518516513515510511511512511511513515515521515515512513515512510509516514510510507510516513510511509511510512517520518518516512507511513511505506511507508509509509509511514516515515515512510506509514513507508511506508507510512513515515512517519515512518511507511509510513514514512512512513516513512514515517515513509508508504508510510512512510510513515519516513511513513513509515512507511511508509508512512512515518517518513511514516512509508510510512512513516512513514514514513517519519513511514512512508510512510511512515512510512513512514510512511510508509509510507509510511510512510514515515511514515515515511509509511510509510512513511512507508515513510513514514512514512509504510511513511507504508511513515520518513511513512514511512516515515510511510507509514512509510514511511513514511508508509508507508511510508511510512517519514514515514512513512511510510508511512514512510512514518518518517514515514512512512511512512511512512508510510510514514513514511510509512515514508507508510510510509510512513513511510514511513515514516512507509511513512507508511511511513514515515512511511512513513507508511512512507508512513510517517518520516515512514512512510511512511511510511510511512515515515515513511513511510511508509509510510510512509510512513514515516512512512512510512511511511510512510510512514517515512511512514518516516510508506511512513515514510509513514512513514511509511512511507509505505508512510508510506510510512515513512514517515513510512516515514511515513513513514514513517516513512511512510513513512510512512512512510512512512515515516517515518515516515510506508510511514515513512510511514514510510513515516512509512511512513512513512510512513515515513516516515514510509508505505508512513508512511507506506511515518520515513512518512514515511510513514512510509510509512514517515516511509511509513513512512511511513511512514515515515514517515514513511510511510510511513511512508509512514511513514516512511511513510512506508510512511509507512514512511514518519515512511515515512510510510510508511511508508513514516515514514513513510511512510512511512512514509511513513515513515515514511510511508510507513512510512512512512514515515516517515515511509516510511510509511509509510510513513512512512515515513512512516512512510510512512509508507509508513516510508514514513511512509507504511508507509511511513514512517518517519518517513515512509509511512513513513510508514514511512514512513514512513508509507507506513513515511508510513511515514514515512511514510513512512511512512515514515511511520519514512513510506513512513508510512513510511511511513518515515515514512513512512509508511508511510509507507511511515516514514515512512513512509512510510511511511509508510511513514515513515516515512515516513510511512516511509509512514512512517517513508515511513511507510509506507504504508511508510510513518520516514514516514513509512507509508509510513509510516514514513510512511512512514515515515512510512513512510512514514515513513512511508511512510508510510509510511509513518518513517517511514511512511514510511511510507508510513511513514516514513512511511508508507507508508509509511513513511511514515515515514516514514511511510506511515513511509514514512511512514508506512511513511515514515514513514511512516513511515518517518513510509509509511511510514517516516513516513515516515513512515513508507508509507508512515511509508511513514514516514513511514512509512509506507511514510510508510511512513513513513513512511511515513512511512515513509508512512512512517515516509515517514512510510513512511515515507511512513518518518516512511511505508509509510513513512512512513511514515515516515516517514515511510512512510511510512514512512514515511511514510507506507511509505505510510509509507511510510514516516515514513511514512515514513512511511511512515513515513511515515515515512514508514515510511512510507508512512509511512511512516516516512507508506507510511509508507508509510511515515513512516515508503505511512516522519514514511507512515519518514511513512510510513510511512513511511511509508510515516513512515519521517513514513512512513509511510511514513511512510512511510511512509511510512511509508510509512513515513511513517512513511512508509510508509509509511514513508511511514513510511512514519516517508505505505507511513514515511512511509518516514509510512509509514509512511513514513513514516521517516515512512512513512512509508508509510505508510511517515511512515515518515511510508510510512514513515514512513516516516518512513512512509510504507510510510510510511512512513512510512512511509512509508509512512512512513513512515516518516515515514510509510509512510512511512512513510509511517518515514515511511508510520516511511513509507507507510511511515520515510508516516512512510507510509509507508511511509516516509513509509511508511511508505509515519513511511511512513516515513512510512513513511510513513511509509505510513513517519518517516515515515511511513512514512512510509511511508513514514513513515512508510510512512514519514509506506508511511514510515515512514512514513513512512518508508509511509510516519512515513512511510513512510511511512511511512513516515515516517513514515517515512511506507508509509505507509513511514519518516518515515516513512509509505505510509510511512512512514512513515513513512509510511511512512513511511511513510511514515511513512511510509507510508504509510514513512512514518515513517516513515509513514508512509509507509511509509510512517516514515513516514514513514512511515512509511509513512516514517519519514512510507505506508508511513510511513512510514516516515517517515513514511511509508509510512511508512512515515513516516512509510511513510508502504508507507511515519516514513512514514515513513509509510507511508506511511511513515514509511515515517515513512510511512512511510510512516512513514517517516512510509508509507506508508508506507508511508511511512513514515514509510515508510513513513512513510513512516518516517514511515513512512510509510511512511512510512513514514511516515514515515513511507512511506508516514509507511514512516517515513514511511508506507510513513512510510515513515515515513514514513512511509510510513510512512510508510512513511513516512512513513512509507507508509511511513514512513515516519519514513513515513510508510510512511508509511510511509512508512514515512509505507510507505508510511511512514510512513509516516512513514510509512511508511509512513514513515516518517515516515513515513511511511510508510514511508510510513518514512512514515515518515509511510507509508508510509513514512515517514512512510511510508508509509512512512512514515518517515518520514513512512510510511510510512509510511519518515517515512514515511510512510507506508512515514513517515513512517518516510510511510508509509507509509511511512513512511512516513512511511513512515511508504506511508505509510513516514514513513512512512513512511512514513513518518515511512510511515518515511508509509507507510510510508508510513510511512513514515518520515516513511512511510510513515513511508508514518512513520518511508511511507509511508509513508506511518517516513514519515513512510511511507507508505506508510510511513518516518517515516514511511511511511511512510507511510515515515514515512515517514515512513512514511517518513512511512512518519513515515513512513512514511514511512511512510511512512513516515514513516511508512512510511511510512511506508513517518512512515515512511509507506511514508507511508511510518524517508507507512512512511512514508509512510509509510510511512511515514516515513513513510510512505507508508509510510513513515513514517517514514512513512511510510510511505509510512514512514513515514513515515515513511510511510510509510511510512516513516515512510511512513510507505510512509511513513512515515518515513515511516516510509508507509513511509509510510511512512514514514510513511513511511512512513512511514513513514516515516516513514513508508506509512511512513508513510512511516517513514515510512511512509507508509510511510509511513513514512515514512513510510508509508512509510511514512513512508514518517513512513511510510506505510508513515510509511514515518516520516515517516511510511509510515514513511515513516514512517515513515517518512512509510511509511510510512511515511513513510513513513510512511511510510510510509511513513514514515515516515513512511508509510509507509508510509508510511515517516513510510510510515514509508511508508510510510510513515516516517514516516514513510510510511510510515512511509511513515516514516517516516516514512510510515518511508509511512511514513511512513515513512511510508510510510510510513512513514513511512508510516515508507512509508508505506510513507510512515513515517516515513508511508508509508513512512512510512515519518516513515510508511512510507508510512514515512514518513511512513513513512511507509509510512510513512510512514513514519520519516516515513513513508507508510509509507508508512513515519516514512510512514513511510510511507507509512512512514515512516516514512510510510508509507510512510514512509510512516514513515515513514512511511508510511511508508509510512515518516512511512511512511514513514510511512511512511511513510512514516513510512511512515514512512508510509513513515512509512515515514516517514510511504506508512511510515515512511509515513512511514515513510511510509510512514513513511517519513515513511512515510512514511509506509511509508510510509515516516517515513509513512512512511514512510511512512511514516514508510508512515512513510511507511512513510511513511512512514515515513511512510511510509510508508508510511511511513515514516514516513509511512508511512510509510511510510510507510512515514514511514511513511508506509512510510512511510509509519523519519518515513510511512509508508509509507507511508514518517513508517521518515508513515512508510505508508509511514513517516515512512515515513511510510506511519519513511511511514516513512513514510511507507506503510509509509508514512509515517514515513512512511511511509517515512511505510509512514512516515517517517517515512508506509511508504507505510518515518515518518522521519515514514512512510511511506509510510511511511511512511512512512513510508511511514512509508512513513513516518515515517513511510513512509511515516515509510512513515514513514515515517510510509510511511508508505505510507511514513509511515516514518513511509507511517512512515514514512513515519516517515515514510509507504507508512513509509505510511512509510512512516515516509505508506500507512513513511511512518519519514512515515511515512511511510511509510509510511511515518516519519515510506510511514515508513510508508512512516517516515517515514516514519512508511511512508510512509512512514513511508508509508504508507510510510512513513511510517513511515516515512511510512511511513514515511510510509509510511515512513516519515513511511510508510511513510508509511512510515515513510511511512511511509509513513512510510517516515522522519516514511512511508510505510512512514512511515513508509518516512514513511513508510508512510510511511511510510510514515516515513513511511509512511510508509509508508511510513518519515511513515514515513507511511511513511511508503508511512516514510508511512514512510508508510512511512512516517519517519518516516515515512511510511510509509508514516513510511512513509508509509509510510509507511510508509510511513512512516520519516511512512513510509510507510508507511512509512511513518517514515514515508510508509512511511510512511511514515514516517518513515514516515514513514514512515512510511510513519517515513515511513516512511507504510510510510507509510511512513510511515515510512509509507509508509510510510510511515518518515519517516512512510512510509511508505504504508511511514513515515516516509515514512511512511513517518514511508510514516515514514519515512508511508508514514508506514520515518514508508512512511508506508507508511511511511508509510509513512511513513515515517512509513507509510512508510508511509509510512513515514515511510511511507504506507505510517515512510515515518518519520518518517512510513516513507511513516518517518519518511514515513515509510510510514513512510509512512513511508511512516515509513515512508507508510510511510509510511513513514513515515513512511509512513512513515511509510513516516515514515513515514512509506504507509511510510509510509511514516513512511513511510513510509512517514512513512511510513515513514512510507505508508510508506511510509511512510513517519519518520517516513514513512509511512514512514512514513515515515516515515516512512508508506507509511510511509513511516518516515515516513510508507508507504507507510507508509511512512509514515515513511513515513512514511512510507508513511509508513518519517516515515510507505507512513512513512513512511510510513514512513513511510510511512509511513510512515513513515513513511513521517512511510512513511512509512515511510512510511512514516517518514514514509507510508506505504509509510511514515515515515510513513511509509510510509512507508510513515515513514515515514508504509510512512513518515513514513516515512510513517515512512511512509511513512512511510516517519517514512517512513513513510508506505506509510508509513513519518517515514512510513515512511508511513512508515515512510511513515518518515516515510509509507505504507510505511513514515515513514515513512512514509510507512513509507509507506509515516513511509507506507511514513511511514512512510513515515515515515515518513510514515511510512516511508513515514510512515516513513513513508511508508507507507506514514512515515516516515511512515513519521518513512511515513512513511510511512513513513515513512513515511507509506511514513508515512510513511511513513514512512511511511509508509512510511508509511512518515515515511514516515515511511508514514512511510514513512513516514515515515515513511509511509507508510510508510509510510512510513515512511506509503508507508512514514513510514514515514512514514514513515514511509512512510510510510509513514516517517520519513514513514512510512513510507508509507516512512517517517515516515514511511513511510511511512509509513510514513511512514514513511512508507507511514511510514513512507508511511513511512512512512513514512509511512508512510514515518519513516517511511513512512512511510509510512511513518512514512511515515510513512511508509507508512509509512509509511510513515512514516513510513514514510512511506507511507505505510512512512512513511509508506503509515515515515515513515512512512511518518515514515517515511509511511512512511510508510516516513514515523521512511511508506508508510511511513515512512511511513513512514512511511510509509511514506503505510509511512514517516514513515515513515515515513514516515511510514516515513519519521520514513515514513512510513512512513512515517512512515513511510509504503503502503505506505506507508507510511511511513512515511510509512512514516514512510511512510513513515516516512515513513512512513513511513515512510508509513516516515516515513513512513510511512514508508508512514512517514511512513511507508513517517511508508511513515514513512511510512516515510511512511508510509512508508511510510508508512513517516513511511509511510510510508510514511511511513512513512512511513512510512512504506504505508512513507511514515514517516512512512511512515510511510509506507512510511509509508514512519519515513514511512514509507506510514513519522515515514513512511513515511511508513510504507511509508509510513514516517516517516514512512512513513510508511509508510512510508510512515513513515515514509511514512512512512513512514515513513512512512510512511512511512513515513512510512512514517514508510510509511515515519516511509510511513511510508511513516516518519514515512514514511511509508507508513516513512514516511515515512511509510507506508512508509512509505505508511511510515517516513516515516521516508512510508507510516517511516518515512511515511510512512512509511512512505505512511509515515515517513509510505507509511508507508509510508507509513514516514516517514517517517510511510509510510508510509511516515515515511514513514511511510510509514511511510508514514512512513512512512514511511509507505509512513516516513511512513515511512513512514515511515513510512513517512512514510509511516513516515515515516512513512510505508509510511512508512512516517514512513509511508509504505507512512509508514513512514512513517517514515513515516515515511511510511510513511514515518516515514515512508514515512507508508510510508510509511511512512512514511511518512507508512513515512510509509504505510516516514514515513513516515511508510512512512512517514512514514513512514515513512514512508510509511512511508507505510510512511516521522516513512514510508507510511510507510508514513513515519526517506507505508514511508508513515512509511509512514517514514515512515513508510510515513512515514515512514515517516516519518513510512513509507506508509508511509511512514515516515515512513514511510509510509511513513512507505509513515513514513517513511508514510508509512511510507508511513512517516518520520519517515514512510509509510515513508509516512509512512513512509509508510507506506507509508507507510512510512512513512513513511510513513510511511510511509511514512513518514512513514514513509512514511508511512512512512512514514517519517512510513516513508509511512513514509509515513514512515511515519514510509509510512511508509513513510509513517512514516515515514511512511511506503506512511512513510506510515515512512513517516511509508511509508511511512516512512515516517514515519520518515515511511512510508511508508508512512513518511512514510512509510507511512514515513514509509510512517512510512512509510511512511507507506504504504507510510511513519513514513511510509509512513511512511512509513513513511517523518512516518513512511510508507507510512512514513514514515519514511516515514515511511514511513512515515512508510511508514515519519513513513515515512513508508509510509511512512514516512512512513512511509510507507504504512518513510512516512516520514510512510508513513508509508508511512514511508511511516518516515511511508506512507508511510508511516513514516513519516512513508509512513514512508508511508505509509512512512515515514511512511512515512513514509512512511508509511513513516514513512511512512511509510510504508514516511504504509508511517523519518519513514511509510510510510510508510512513513514514515516516512512514508508508510507509511515515514512512517515514513512514513512511511508508513510512512512513514513518516515515517519514514512511508511510508509511511513516516512511510512516513510509512507507510511514512511510512514513515511513515511511508507507507507510512515515510510510511511515515514515516515515515516508508514513509509511510509512512513509512513515515515516515513509509511512511511509510511509516515517516518513509508509506506507509510511512514512508511519514514515514511510512515508508507509510512514513512513511512515515513523519514514512512511510508508507506510513513511513515517513513514515513511512510508514516512513513512516515516514514514513512512510510507510508505508512511508506512514522519519519513511510509510509508509517518511513512513513512513509508511511513516510505510510510509508512513511506508510509508515520518517518518515513511512511511511510514515509510511510507508515515513514512510509510509511513511509510514512514516515512511513513511511512514514513515514511514510511519521515512508511511509504505501510512510510509507511511511511514514515516514515516516515511510511509511515512509511512512517518516515513515512510513513513509511518517517515509511511517515517519518514508509510513506505507506505504506508514515519513512516515517517516513511511511511514514511514511510515513508511508512511507510511508505504515515513514512511515514511508507509513512508509512510507509510512513512513516518517513514516516516512513511509510507511511511512508509512512508516521519514517514515510511513511510510512512513515514516518518516516520516518516516516513512507507508509505506504507508510511512510509508510511508508508508508511512511508508506514518511509514513513509505507506505512518520517519514513515520524519519520523521518515516511512513512511512514511512515512518515512513508505511508508511508508510511509510510510510511514512518523515512511513518516515512513515512514514514513515516515514512514517511509506505508508510508507511511512515509512514513512510511510510511510508506510506508508511509514512515513512511511508508509508511504505508509511511507510513511514514513513514513514512512512513512510509511514513512513512513509512513512511511509509512512513512511510512508510515515515514515515513510509512508510510509510510510509506510510511519520518517518520517510508513513510516513506510512515512513517513509512513512514510511511509507511510508511514510511511515516513510513513511505511507504504508508511512512512514515517513514517515511512514510511510509509512511512513514512513509510513511512515510509510515514511513517508507510511509509513512514517515514513513512508508508509515519515515512516516515515514511507508511511508509511511508509514511511513514511516518515517516516519515512510511512516514514513511511512511514514515516515512511506510512511511509511516512509510509508511517516514512511510512511511510507511515512511512511510510517513513515515519510509511513512510511508506508509511511511513515515515514516511510509507506504507510510509510512513513516515514515513512511509508507508508508511510511512512511514515515514515513514512511509511513510511512511508511512516518516510515514512510510515515513510512511512508508512512513516517515516518516513514512511510508509508510510511511512511512517518520517513510508509509511507506509509509508508511514513515516515517518517512508513513510508509514512511512511513513515512511512513514512511512513512513513511511511512517515511511511510510513514514512515511508506513514515513515516508513519517513518519515519512507508505509511515513515512508507510513512510514509512512511514515512513513510513512509512516511513512514515516511511508511510509508508508512512510512516515515511512513514513511513515510511512513516512511509510512519516515513511511508506512512508512516512510513510507512513515515514518517518514512512513511511513510508508508510508513512515510511510510513510508507506507507509512514513513513513517519518515517519515513511510507509507503504509511507506515516517514508509510510511511514511509509511512510511514514518517519515514515517512510509511505505507508511508507508509513513513513508509516519511516516509508508509514511510512512513515515516515515515513508508510511510513517510513518516515515515515516519521519515512512513513512509507506510511510510514516515514513510511508509508509510507508514511505508513514514512512510512511511513511512511508513510511510512513510513515513512514517516518514518512508504508512512511512513512512512512512508515519515513514512513506508512509509512511509512510509510508511514512518516510509510512512512516517511512510509509511510510512515514512509510505508509509509511512510508508513516513516515517518512512515514510512516517511507508510508509511511515518513512509510507504505507513512512510507507511511515512515515513513512515513508512512511513516515512513514514515514515514512513513510512513511513515516517517512511514512515518519515518519521513512508510507505511516515512512514512511511515515517516509510510512512509509514511508510512513512515515517511509508511510512511512511511511510510510511516520520517513513513514511509506508508506509510507507506508510513518516513512511511512507508505511511509511515511513509510511512514516517519516517515507502505510508505510511515512514514515518520518515510512514514513514517516514514514516512511514515514519518515515515514514513511508509511511510513514514511512512508510513512511510512510508508508510508514512512516517515515515513517517519513510507507506503507507511510509508510510511508511513511506503507505509512510513513516515518518518520514512515513511511512514511513513515512512509508508508512512511512514516515512511510507509511511512517514511516518514513515512512516518514510509508506506507513512510510517518515513514515513513508506508509509512511507511510507510509511512514514516516515516514515514511512511513513514517512513516518516515512512515513512510511508507507509511512508510510509512515511507511513512511510511509504504508508512515510509511513513511514513512512513511510508510508506509509508509510518517513518515515516509513512511508508510510512514511510509513511513512516514512515513509512513517512510513511512513513516517518517517519516515509502508509509507511513511507510512512511513511513514516516516515515511509508512512512515517515511512514514513514519514511512513509510510512509509510510510510511512514512511511513509510509508510508507503507510511511513513514511513514516516516514514514512510512511511506507512511512511509512515513512511512510507513514511511510510508508513518519515513520519512512513511510510509508510511515516516514519520518518516519519515515514511509509509512515515513512513516517517510515512512511512511512512512510509509510513511511513512512515517512510513508509509507507508507505504510511513512516514518516515511510508509510512511513510508507507509513511512512511518519516512512510511512507512510508510511511513509510509511515512513513512511507509510519519519514512511513511512512518513513514512511510508508509511512511514515514513515516513506504509512509506509508511507507510510510514516517520517513515512512511512512513508510511511509507509509510513515513514517513515512513511512513515513514510508512512515518513512509507508509510504506510508512518513509510510508510512512515511514513518515507507506507510511512505506508506510511514514512518517515516518516513510512517515508507507511511513513513514515515512512511509507505513513513511512511511514514514517514517520520516512512513515514511512514512513512514513517514508511515514512512507504503505510511512513513517515515515516515516512511517515512511510508508507508511510508511511512515510511514513511512511510505508513517513507509511512508510515513515514512513511508511513512514516514512513515514516514511512513515511511517512514510508513512513514513512514512516520513517519518515512513510509511511511511510510513512510515516518516517519517514512518512511513515510511509511512511512512511512512511512510508509513515512514513512511509508514517515512513515513508511510509505507506511509509512512509510513513514516516517516516516512510515511513513510509513518519522520517519518513514511509507508508505504502502508515515508513515512513513509509511512516513515515515519518515512515515514516514515513510508509513516511510511512506507512511514513512513513514514515517516514515512514512512510509510509510513513515514512514514513508507509503506508508506504509509507514516515511515513507506508511512511512508511509509510508512513512514513513516516520514513512510508510508505511510509512515518519521518513513511510511510511512511512512511511511510514512511509508507503503505502507506505505512510511516518519519519525520522520518513514512512509509514513509512511508509512514513512516516514515516512507508507509508506505505505507510515513511514513514515511509510509513511508506510510511513517516515520521521515513514512512511509510510513510505508512512513517512514512515512514511512512517523519515511513514513511513514516516514511511510511508507508508510510510509508511514516517514514511516514513509510507508508507510512511513510510510508509513516513513512511509508507507513514509509508509508507512510512516518514516510508507509515514513510511515514514512515513514515515515513509511512513511512511512512512515514509512512511511511510509508511504509506507510508510512511512514514518517516510512511512511509512512512514516513511511514514516514516514514515513512510507508505502508507510509514515515513515512511511511509515515514517513507509510511513510512517513510512511508511511506508509511512512513512512513512512518516519522519518517516514512511513511513513512512509508509510511512513513515513509508508505510509513513510512513515513514519520522519517515515513508506506508507508507510511510508510509509508510510506509514509511515512512511511510515517515519521520521516512511513513507507508507508508510508510512512518517516515515513511510508505504508509514513511508513512518516512515514512513515516515510507512512514512515516516515513513517515515510512510508506509508509512516513509511514513514518521517516512510513511515512510509512513509505513513509503506508510512512512513516513514512509510510508505507511510512516516517513509511511509508509511510511510511507512514513513520519519515512516507512516512510509508508509509508506509512510511507510512512515510508508510518514511512512514512513513515519515518515512512512508510506509507512510511509506508511512511516513513513511514513514513513513511515510508507510512512512514512511508508509509509507510512516511508511513511511509511513514513515513511512516517516515515518515516515514517519519518516513513513512508511509511511515515513510511512513515515507511511510508508510511509512511510509511512513513513514512510511513509505507514514508507511512510508509511511512516518515514513512509512513513510510512511508511512515512512515517517516513512512513513512510508509511510509509512512516516514514513512512510509512513511514511513511511511511512513515511512512512511515509509512510515512510514515515518519515512519515508514515510509510512511512512511512513512512512517518515511510511510506511512513512511511509510509508510508508510515511513512510513514511509507509508510509510510511515518515508511512512513510509512512510511510510510511511512514518520520516515512510511507510510507514516511506504506512516516518519521516516514515512512513507506512515515512513514515518523521517513516517514511511513508508509507505506506508507511513512511510514515516515512512508506508509514513510512510512510510513514516511509511513509506514510510509505510513518517516517519519517513512515516513511513512507510511506504513515512514513513511510509507512508505507508508508512511511511511513517518517515515511508511512510505507505505508506506506512512513515515520524516515513518515513516516515515514516515511510512518512511508509507507510507508509512511513513509510512517518515515520519516516514514510513512513515513512512515511510512512513513508511512513512513511511513510507507509509513513515515515513510510512508508507509512511504510513515511512515512512511513515511514510511513511510513510508506508513514516518518515513514512511509510508509508509507506507508509511512513510512515515513510511512510510514513510511511510513514516515512511515513512511513511508507510511512511511509509512512513514512513512513510513518516512510511515513510512513514514513513518517515515511507511510512513513513508504515515515515515512512510511512514510512509512513511511508510512511513515513514511511512513511512512511512512512511512510511514515518516513513512514512511511511511515515514513512512512512513515513509510508510510509510510511510508507505508514511513514515515515515515517513511512514509513515517517512511510511511513516513514513510512513510511506510512515511507506505509506513519514514510511511510507509507505510511507507509509509510512513510513514516515512513513513511505512512513512510514519520517516513515516514510510510507510512510511512514513514516518515517518518516515511512516513511510510509510512514512512516516517518517514512512510508506507510512507506506508508511515514510511511509508505506503504510508507504508511511512514519516515513512516512513513512511515516516513514515514510507511510509513513514513513513516513513513512509516512512511513515513510511509508504504509510508512511509509507508509508511515516519516514515515514513511508510514511510509511512512514516517517515515513515514515514511510509508507508510511510508512516509512515515511511512513508509509510508507507510512513514512511510512515514514511516514513511513512511512512516517511511515513514515511515514512510512512514511512513511514514513512512510513515512511511511507508507505507510508512513515513514512514518518514516513513510509507508508510508505510514513516517516515514517514516516511513512517515510507509512508511510513514517515516515512514512510513514519511506510510514516520519514515516514511505508506508507504502508507507508509514517510516514512514512511513507512512510514512516515515514516518516515514514512512508507508507507509511513510513518517519519516513510515514506508508508507510510507510512511512519519514511512513517513513509510507509512511512511509511514515517515516513514513512511510514515517516518513512509508508513514515515516515513514511508510507508510511510511509509508511511510512515508511515512511513514513511509507510512514512512517519516512508511513516515509508511509509509511511516515513515515512511514513511509510514511507509514514508510511511512510511514512513513513508508508504509510511509507510518519517513513513515516515512511507510508507505508510509505511512511510510511514512513517513513510511513512512512511509512510516516517515514508512510509508512509509510512510508510511511514517516514516514519514512510507511513510510512508505510513516515511511513511512514512511511511510510511511511512510510514519522518518519514514513511509511513511514509511512515513517517514512512513514513513517510506507513515513512516512508512515514513515516519513508508507504510507508509507510515515515515514513513511514509508509508507509512512512511512509508513510511513514509505505503510512510513510513514513512515514516513517516516514514514515513510510509508511512515511509508515519519515516513509511510510507511511512514514514512511517516511511516517515512511511511512510509508512511511509509510511512510511511512512512512515511513512512514515513513513516514514515513508513514512509508507507508512508504508509511511513515514513516516513513512511507503506508510510511512513514516520519517519516512511511512510509508508511510508508510512514514513515516510508512515511508510512508508508506510511511516515515514511511511511508508507508507503507508510511511512515513514513513510510510512510511511511510508510515517511514519515513514512515516514511514515515514513513515512511512512513513513511512510511508510511513511509508510510513510513513518517515515516515515512510510508508507510511511511510510514519516514513516517518514514509505506507507508509512510512515515518519514514513513514515511513514515516513515513512513514518518517515513514513511511512511508505507509513515509507512519512509507517517515514511504506510516513515513511512513512514515519514518514508509506509505507506506508506507509511511512514513515514511512511512510508509513513515512515513513513515513515514512513515513509512507509509513515512511512515512513515511508509508510508505506508506509506511513512511513516514512514511513513512510510505508512513517513510512513508509517517515514514516515516514511511512512512513509508511511510510512513513515514513512510511514515510508509515512513511510511512510506513519516511514514511508510513514513513513515515518516520519515514516516512511512512516512513512513514513511515516516514511509507509509507507508508510509512512515513512512513513514515514516511510512511509508509510510511511513515517517518514515517513511507508507506506509507508504504506509512514514511509509509513515516514513515514512515513514513513517513512509511512513510511512513511513511514514512513515514516518518515514514512511510507508506510512515516513511513511512511512513511513518511511512514511511513512512510511512514515515514515517515511515512509510513514510512514513514515513515512513510511510512508507507505508511510509513513508511511515514514514517513510514519513508502504508510512519519520515517515513511508512516511510508509515511506506509510509509512517518515510512512511511509512511512507505510507509509510512514519519514516514515509508510510509512514511510510512512514513517517512510507511512511511509512509506507507510511511512514511513517516514512511511507502505510508508511511509512513515518519516516515514514512511509509508510511508507508515518518515512514513512516515510512514510509515519510508515513516515514516514514515513509519519510511511511512510510510513512513510510512511510510513513511508510510509512511510509515515514512515514516514512511514512512510512510508506511510511511515515516515511511512511510509511513515517513510515515518515515515514512515516515513509509510512514508510509512511512514515515512507509510513512510507506509511508511514511513511511512510510506510515512508505504503503512510508511510510512515514515515515512510511514510508512515509508504508512515515512513515517515515519513515514515512510512512512511511510512512516514516514516517512508509509508507509510510512512512511513518515513512508508516515509507508512510508511513512509511513515516513513513513518515511514514514516515514512513511508507514512510511511510512512515516513513515508503505510510513513512517515512511513510507508509508507511510510511512513512512517514516515518518515514517511506512513508508509517518514507508509513513511511515514511512507508510513515511509504504513520516515515513511510508509512510510513510508506509508511515515515513514515510512510512510512512514514512512512511512511512513515514511511512512510508511509509509510508510514515517519518517517517515514512509508511513511512515512510513513513514513513513513513513513512510511512512512512511512511513515518515513513514512514510510509507511511509508504503508510516512513518512513513516511509510511510511511514511508511512513517518516519514512516514509507513517513509507506507511512516521515515513512513512512513511512508510512512512512510508511513513513512514512513507509508505509508511516512510508507512512511513515520518514513515512511511514514514513512507513515512511515513510509511508511508509510513512509508509511514518517514514520514513515511512511511513515513511507508511511511516513512513513512509508508511507508511511517515508509511510513514518518518516516513515513513512510513514510511510507507510509510511512514515513510506508509510509510508511508509512516518515515516516515515513511510513512511511511516512510511515516517519513511508505509511508508512513508510511511512513518515516512512515515513510510505503506506506508507509511516523516516516518517518513512508513518511511509510508511506505510512514511512512512511510513512510510511511508511509511513517519514515514514516514511511509511512511508507508510512515519516518514512512514511510508511514512509511510508508512511510508512515513513511510511511512513512509511510512513515511513517515515514512512512508514512512513512512510511516518513515511511515514512512510508508511509509510512511511508511513514515512512511516513512511510506509510514513509507509510515516512514514515514514510512508509510511509511509514512511511515516513515516518515510507507508511515514514514513510512513514513515512515513513514514512508509513510512508510510512513513510517518514512512510509510510511513515513513509511515519519515514513513508508506509512511512515519513508511512512514514516514514512514512513511506509512512511509511509503513518515518519517511511510509511512513509508510507508504505508508511513517514513510514512509509510512510512513508509512514517515514515516516516515514513515511513512508511510509509508510512510513512511511512515510510514513517521522513513513511511512512513515514513512513511504503505510510511512512511514518513512512509514512512513512510508508511511512513512513512512514511510511511516513510504510515511511511514512510508512512513518521518513512516516515511508511510509510507514513515513514518515512511508512516517514511512515513510508507515515512516516515513513514513512511506508509508510511507507509510508511511516515514512513512513509508509512510507509508510511511515517515515516515514512510511510511508509512511512514513516513515517513514512510508506505507506510512515511509510510511516518517515514514512510508510510511511511514513512510509511515514514512514514515514515512515512510510513509515515518516515514514511510512512513510511511512511508511511507507510513516519514514512511507508509508509511511511510507509514511513515515512516516515516515515514513510509507511510510509513514516514514513513514512511511511512508510510512509512511511513517515511512512510514513515514512513513509512512510508511513515511513515518515516513517516511512512510509513513514507507511517518515513514509509509507511514515515514512513512512510512512513513515511510510510510507511506510513512512510511512514513513513513511511508505506506507509506508510512512509512517516513515516512512510511513513510507507511512516516513513516513513514516515511505505503506514513510505508510509510513515516517516514517511511510508510510515516512510508510512511510516520519518515510508511511510511511513510509515515515512514516513512509505506511512512511510511511511509507512513515517519513513513512512511512509504510515517513514519514515516517516519518516515515509510511511511508508509510511510512513517517517521518513511511509509505510513512512511512509508512511509508510512516518515512511511510513510508509511510513518517512510511510510514511508507508511511511512512511511517511510510515510511515513510509506506505508508508509512512511513516515512513513514514515512510513512508508511511515513512513517515513511516516513512512508510509510508512514510508510511515515518511515512511511510511512511507506515518518513510512515508509513514510512509510511509512515516515512516516511513514512513516514514519513511512507503508509509510513513516510511513515512512513511511510508507507509510510511510508511512513512509515518513513510510511512512514510512512512512512514514514516515514513512512509508509507511511512511510508511512513515514510510512512514509511510508511508506508508511511514514517516517514513513509510509507512512513513510511511512513518515515514512512515512511514515512510509512513513513516514518517515512512510511509510509512511509508511508507510508513515511512516515513509517518514513513510512510507510512514514515514515516516514514514510513511510513513513511509512512515516520523519520518518516517514512511513512509511512512514513509507511516516511513514512509509510511521518517511507502507512512512513519511511509508508506503507507506508508508508510515516515516511510511511509508510511511512514514514513515515518518518513515513513511512510510510510511510507511511511517514516518516513513515508510510511514513510507506512512507510515509512508512515515512512511508509506508511508508509511515514514517509513513512512513511510512509510514511509513515513512513514512514515515513513511510510511509512512515515512515517517510512515513513516512511512513513511511509511515511511516516518513512509508510507510511508510510510509511510512511516515517516514515515512511511512511512511508511509513513515515514513512511511514512510511511508510511509512512511514513512508512516521520519515512508506509509507508512512510512514512516516515513513513511508508507506508508508503507508508509512519520515513515516511512510510511511511513513515516516515516514513515511508506512511512510508510511509511509508511514515513515515511511512512512514508510513515510511512517515515517518517515515513515512513510510510511512509510507511514515511512515515514512511511509507505509510509508511516511510511515511513512518517519512514513514512510508511509515512509510512511514511513512511507508506508508507510513509507507512515518518517513515514514512512510511509509507508507509511513512512518518517512509515512512515511514515513514512510511514513514514515515512510508508505505509511510507507504507509508511513516516513515516514509511510509512516516515512510510514514513519521514514516515513515515513510509506506512510510512515516515514513515511511508508508507508510509511507511512511511513513515515517515513513511513511512510509508507510513515515516513516515515513511510509508510512510510513514513514515515515512515519522514514514514511508510515513512509515516516511510510510508509506508509508509507508507505509511511514513510514514515511513512511508508509508509510509510507509512515515515517517512517514512515515507506508509514511506511511512511516514515516514514513511508513511508510512510512515513512510517519515514516512511511509504506511510505510513513510509510512513514511512514515514511514512514515513511514514515515514518517518513510511510507510512510514512509512511512513512516518519516514512514510511513510508512514508516515512508507510515513513512512513518512510513516517514513513512514511509511512514516512514516514513512510513511508508508508513511508510513515516512509511510505503506508508512508511511514513513510511515516516519513511509504508512507512511513512512512513515515513514515512514515512512511511511510511512510509507510512513513514514513514513512512510507512514510511509511513515514515514512510511511513507504501504510512515513509512517512513514514517519518518518519511509508512513516518514516511512517517511512506510509506504504505503504507507511507514513509510513517519518517515517513511514514514514513513508507509512512514512514517514514510507508507507511512513509513515515518516523520517516516512511508508507507509511510510511518512514515512510513511512510509508512514510508509507512509515517513515512513512511516514511512513506504505514511509506506506506511513512509507508512518516512508507509509508510512515518518519516517515518514512512514511507508512512513513513516515513515515514514511509511513512510510510513513513512512514514514515514512512514513511512509512512511508510511514512511512515514511511508512514508507507508511508508510508512512515514514515516515516515516514515513511508507508510510509510511508508507510515514510516514514514511508510511511510508508512512516515513514519514513518514511512511509511512510510510508508511511517515515519517514512509506506512514515512513515512514513512513514514512513514514511510508510511518515511512514510513514513517519515513515512513509509513512516512508504511511513515513510513513515515514514513510511511510509511511508510510511514513510509511507509507508507509511509505510514517516515513514516515512511509511508508504503505508508511510508513513512513515513514513508512511507508503501507512511510511507511510510511510512512511514514511507508511510508510509509511516514515517521516517515515513514511511512511511512512513514511515514515515512509513514508509510507509509508508507512512512514517518517516519517513512512510508511509510513515516515509514515514517519517514516515513512509510509505509513513513512514511509506509515510510513515506509508512509510508506509512515514515517514515513515511513510512515513511511508506508510512516518513513516513513513513510507509507507509511515511511512515516519514514511511509506509510511510510510513513517516513514515515515512510510509508509509510512514512509514515514514513516515515516511511515512511510512511511512510510509509514513512512510510509511510510509516512512516516511511516518519519517517515515510510510512508511512511507510510512513513514512516517515513510508513513508510510511510509511511513515517511515517515511509510514516517509509512512510507508507511510514516518515514514512508509507507509510512511511511506511513511513513511510509510510509509510510508509510507513513513514520517516515515513512511516513513512515517513511513512512514513515514510513512513511513511513512512511509505507515515516514514517514512512511511511510507506509508507510512512513513513510511510511509511507506508508512512513513509509514516511510513515514517514514514513510513517513514512511515516515516518515513511511513512506508510511509512509511511512506504512512512511509511507511508507508512512511516518513513512518514517518516514512513515512512510511511510508510510511515518519515515517515515515515513513512510511510507512511512511511513510509510509509508511513510512515517516515513514513512512515513518515514515513511511517513512512514509510511510510513513511512513517517513512510509506508511513512513512517515515515513514514510513512517513513512512511508510513508509509512515513515516513512510510508508507507508508510510507509515514512510508508513517511511505511506508511510510515512512515514516513515515512512513516516519513512511515516517518520516519518517519518516511511511507508501505503504505511507508510515513511509509508512510511510510507509508509508510509510512513516518516520515515513514511511509509511515515512511513511513516518520516515517517512510508508508515512510510510511510508511515512515515513511513513512508509511511509514514518518514515513510514516513510511512512510510512509511514512511509512513518516513507510511504507509509509506512516512508508514517515514516519517513512511513512510511513513514514514512511513513513512514514514513509509510504504506507509510514513510512512514511512517516512511509509509507511512512514515514513516514515516519518517515517508509510507510507504507512513513510512515522517511511511512511510510512517514513513511509512511510511510512514510510511511510509511514515513512511512513515515516519514514514515511511512512513511513512516512511513515515515513513511509508505506506504511509510511509510512514512520515513515514511509509502505504505512514516514514513513515516514517514517515512511514511510510511509507510511515512512515516514513513515515513509510508510509513513511510510511509514509510509511511509520514511512509511512511508510512518516513516514512514515512515512513513514514516509511512508505504511515513510511512509510510508507509508508511513514512512512518520520518512512512511510510510512513510510510508508510511511510514515514513510512509507502507510510508505506508511511512512514515513513517519514512514517515510511512512512512515515511512513516514511508507515513513512511512511511511511513513513511512515513510508505505510510510512510509509510511510513517518520519519516517511510508509510511512511512513516521518516513510508508508506507507504508512512508508513513512513519518519517518516518516513512509509508508510511513516512511514514514512513516512512509510508512510508511510512510512515515515513517518515515515518513511512511511510512510511512511509511511510508508508508504505507511509510513513511509510513514515512512513512508514511512512513511509508510508511510508509510516516516514515514508510508511511512513513515518515515518517518515516516513511510509507510510512510510511510514515517516516518515514510509510514513510508511505503505509513518517512512512512513511513515511515512512513511512511512511515515511514517511512513517513509510508507512510510511511510510511512511512513513513513508508509511508513513514513513510511513513517518515511509509508506509513515512511513514513519520521521519519517516512512512512511512514514510513513510517514511508510512512512513512512511510512512512510511511511509513516516518516513510507512510510511511509508511510509512512514518519516516515511512511509509509510511512511506508513513511515512512512508508503510509508506505506508509510508512518514515515515517517514511512510512512513513513513511504508508512518518519520519517513514512512511512515514512512513513515514515513515515510510511516517507509513514512509510510511512511513512513511512512511510512513510510512508508507504505509511510512517511507508509511512510514514514513510511511510509512514515513512515513517519515511508512514509507511511512515515515511511513513516513510506506510508508508510511509511512514513512512513515515512514508511511510512508507509511514513510511515516517514518518517512509507510511510505510508512512516517511514515516514515515515514509512513510515517515515515515514513516516513513514511508509510505509512508504507511511512515514511510511513515515512508507509511511513514511513512513515517518517514513513513513507511515514512515512512513517517516515518515514516510510508505505505506503509511511507510513513513515515512513515515513511512511513512511512511510510516515509511513511512514511509508509512514516515515514511509511514514516513513515510510508509510507507509509509510511511512516512512511513515514512509510510513513513510510511511510513515516518516511516517511506507512512510510512511508508508509513515517512510512513513509513515506504506509512510509513513514513511514514513515512509510514514511512514514513511512516518515516518517516513513509510510511515512509508503511510511514513512513516512512513508508507505507511511509511516516514518518515517512511512510507510508510511509509510509510510511515518517518515514516516518516508511513511513514512515512515516515516514515514513513510512509509512511508508509509508509515516512513513515514515517514510512514511507512511512511511508511514510510508510512510507506506510512508508512513513516513512518518515514514516513510507506511510510513515513511515516514516513512515516517515509508508508507510509507510508511517517516514512513511511512509510511510511512511510512515515515515517517513516511508509510509509508508509510512515511512515517517516511512511510507508508509510509505512511515517515518515516515510511509511509506506508509513512512511512512516515515514514511512513512511511511511512513513513511511513514516518516511512512505508511514511505506510508505508511512516515512511511510513511512510510513509509511507510510511514511516520518515513515512513511513514512512511510511511512513513517516516516512513509508510512512511513512510512510512511508509515516512508505506511509513515509510516517514513516518518516514515512510515515513513510509509508510510511508512513516515514514513512513512514512511509512510511511511510512514515514516519515512514510512512511507507509510510511508512520517515517511509512512510508508508508510508510506511511510508507510509511513513513513510509510507507509511509507510516515512513513515517515516517516515513509509505507506510511510511513516516515516516519518515513514514513510511510509509513514515516512510514520520515514512512511508509509510510513513514513513517519517510509508511511511507505506506505504505513512512515514516515510511512513513513510512513506511512511511514515517516517515511510509507509509509513511511511511509513516515515515518514514518515513510507508510512513510510508512512514514514513514515511512513516513511510515514511512513515514513515516517516515515513514511510504508510508509512508511508510511513512516519522516513506505507510508513507509513513512511512515517514515515516514512511509512511511513507502504513513514511513519514511511508508512509509510509510509510510510513515513513515515514511507514513510510516515511512515516514515518512512513511509508511510513512511510512510505509511513511511510511512517516513512513509508510509510512512514514518518512510512510511513508507509510510511510514514515514514512512512514515513512513514511512514512516515511510510516514513514517517515513515514512511513512508508507510510515513515519515518515511515516519510507510509506504511506502503504508508507510512511511510510510512511510508508509511509514511512512516515516518512512513514511514515514513513512512514509511513520522520513518518515510512509511510511516515506508510510509512513515516519519518511511512511509513512512509510511511510511513513511512513510509511511511513513511511510509506511511516515511514514512513511511509509508510511510508510511513516518518519519516515511511510506504512513509514514513509508510515515514515517516513508505506505506508510509511512508510511513515513512510510513511513511515517516512513513511509511510514518515515517515509508508507510512511511513511512511516513514514516513513515515513512508509511508510510509509508511513519520516516515512512512511511510512510512511509511512511512514519517515515515511511515515511509511509509510511512511511512513511508510513510508511507505507507509507505511515516513512513513515516511514514515511507509512513513511511512512512511512514515515515509508515509510511510510511508510512513513516514514518517512513511510512511511510510510511514516518515515517515516515511513514512508507508508510511515510507511515521519515513512506510512506512516518515514511509510508508511511511512515512510512508511510505507512514513510508509512512513514514516515515514512513511510511511511512512511510511514516513512522518516514513512512512508508511513511509508511512516515515511512512511510507508509509510509511511509505505510518521518516514512506503510510508510510511511508510512516517516518516514515512508509511515512511512514512507508508511509512515513516515513512511512513515509509511512510513515517513513516518518517515513514515513514513511512512511512508506507512516511510512514515511511512510512515513509508510506508516516517520519516517515511511511510508509510510511511512514512513513512513512515519511512512511516512511513512508508515514515518514514511513511510513510509512513513514514515511512515519519521525520515515511514514512512515513507509512510515518520515510510508506509512509505504508508509505507513514510510517518516515518519514511508509508507508505508510511508510507510513513512514511514509511511508505508508509510511508516514515515512512510510506510512510503506507512510504504505508511510512506512516514518515514513510513513514511513511511514518518516518514514514514508508506505504506510510511511509513513512514513515512514516514514514512513515513515511509514512511512509507511517510516517515510512511511512516512514512511514515517513508508510514517517515517513510511512512510506509513513514512514516512510510512509505510513513513511513512515514515515514510508511514513510504505505504506509506504507508514521523517512510510511510514509508509505507507511514509514516519517518519515513515511512513508512511508508510509510513516518515515512515510515511510506505507510511513511513512512517515515522523517514518515514515515513513512513512512511519516515517514511510511510508508508505508508514516510511512511510509511512514515511511506511511510513518517513513513513515510513513511506508508510508506507507509509508511508511510512514518517520520516518516515513512507506506505506506511507511511516514512515512512512511513507504505512516514511510510514511514516515513516516514514516513512512512516515507508509511509511515513513512513515509513512512508511513513513515513513509513512513510507508508508509510510512513511513514511512513511514514514516518518519512512509507509509510510511513511514515517517512514512511512511513514510509509510508507506510511511514516516516515511512509508509511511514509509513513511509507515517515512509510511511511509506505508512511513511509511507513516514515516513511514514514517515515511513516516519519521522515515520519514514514512507506505505509507509509508511511514515512509507506512511512508510512515511511507508508511510512513513519515513507505512511510510508509510510508510511512517516513515517513513512513512512512515513513514515519516514516516517516516515511510509507508509508508509511512514515513517513508519515512516513511507508508505510509508510510509512516515512510512513511508511508512512511510512509507508512513513515517516512509508509512513510513511515515510511509513513518519518519513511510512507507509508506510511510512512511515519511512513508509509506505505506506510511511508512511512515518515513514514511510508511506505510515509505507512516511512517516519520510518521511510511513514515514516512511506513516515515513515513512513512514513511513511509510507511510511510513516515516518515515512510509510508508510510511510512514514516515515514514511512513511510511512511511514512513514510511512512513512511504507510513512510508511511506505511511515516516513510511510514513513513508508508506514514512508507509513516515519518518516514513512508508508510510515515515517515516516516515513514515515513511511508509512510511512509509512512514513513518519519516516515514515517516515514511515515515517513513515515516511510507506508507506508511514513511511508509514516515514513511512511508502504505509511510506510512512510515518518515512512512509508508509506506508511511512514519517517517517512514515512510508503503504506504507509511511514516518519514512515511511508511511511510512515514514511512514513518515514516513511513513510509512510504507508509508512514515513512515519523519515513509508505507508510512506511512508510513515509510512509506508508504506511513509513511509506510514518515519520520518518514512512509507514511508512510511511510512513515515511510515512513516513509510510513515516511513512512513515521519514513509511512508508509512510512511512514515518514511512512513512511510508505505505507505508512514519513515515515515516517515514514512508510514519518509509509511518519518515515515515515511512511510511514512513515513513515516519519513512512511513509509508506512511507507507502499502502511514518514508513518510510513515515515515512513516515517518518513517513511510510511514513509512511511509510512513515512513515511512512511511508512510510512515512511508509512516512513509514513512514511507508509511511510510511512509511512513512515513514513511509511509508506508511511508508509513513512513513510512513511510511512512513512511515515513511513517516520520514512513515518509511516511509505505508508505509509511513514514514511508509506510508508509512510507508512513516516518515515514512513516515516511511513516513511512511507512517517519517517516512511513511509512512512510515515514512515514517513514519516516517513511509509510508510512515512510513516514512509509510513510508505507509508509508507503507517516515514517515514510506504506508505506508511512513514517512509511517516516516518518513511512513508510511509511511511509511511512512514515515512511512513509509510513507508510510513513515514515516515518515515515512507508513513514515515515514519519519516513514515514512512513512511513511512512509511512512510511512515515511510513511514515517512508508510511512511513516516513516515515517515512512509508510511513510514512513514511518516513512512513510507506504508510510507511510511507511513515519516518520517516510509508511510511511509509510508510512518516514509511512512508509515512509509511512511510508510512514514515516515514512510511512509511511511510512515508511512517519517515516513513511513509507511513510511513514515516513514514512511511508508507509507507512512508508507512509512510512513512515514515515511513513515513513511513514512506509512516512511513513513514511510510515513514515514514512511513513512513513513512510511508511505506510506511511509511509512511513512510514517516511511512511512516511512512508507505512511514514512514514511512509510510508509510510509509507510512512517517516518516513513510510512511512513511509511513510511512518519518522520519517515513508508510507510511512511510516516515515513516512509511509507505506510513515513513519515515513511509509509513512511511514517511508508508508508511512515513515513514513514513515513515512510508512505509513515512510512515515515513516515515510512508510514514512512510513510510511513513513514515512511509508511511510514512512508507510515515513509515518516512510508511505507508510511507507510508513510513516514519516515514511512511513515514511514515518516519519520518515512513508505507506506505505504507511507508510512511509504509512511513515512513509506510514512511511513512515516517511513513517517512505513512512514514512510508512511515517518518517516515508512513512511510510511511515516516513512514515515513513515515514511512513511511508511509509509509510513514514512512512511509508506507506505505505507506507509510511515511511517519518519517518519518520521522521520521518521517519523518516517512510511513511508508507512510505507506507508509509505506508507505504504505505503501506507508509508512513509510514509504510510511514511511511509511511515512510515513510509513514515515513516514508512516515511511511510505511512514512513513513512513512511512511510511511515517517517517515515516518511509511512510511510509512512513514510511512516515515515515514516514515514512508510507508508510511510506512513511513517517515512512513512512509508510509510510511511515511509511511508508510508510512513511509509509508511512510513513518518519518515510511512509510515516515511511510513516517514521519514516516513510510513511508507507506506508510510507513521518512512512514513515513512511510511518518510507509515513518516518515512515513513512507510509507509513511509512515518518511513512511514514511510511507512513511512513514515516512514515513515513513517514515512511508507505504507513516513512516512510513517511505511513512511510509514512512509510513515513512510513516516518515513510509511512513513512511509509513515513515517511512511508508509507505507507507507507508512512515516512510511517515511512510508506509509509514517519519519521519514514512511513510507506504510511510511508511508512516518517518515508509510510512511510513512512511512512513515515513511510511512513512511511513512514515513512511508508512510513512513515515510509509510511509509509511514512513516519518513513514517517515515512510508507509513510507506511511510510519521517516513513512512509504504505505514513510509510513513515519518518522519519516518513511509509511514510512508511519515516512516517510508510513511506510508508511508509511513514515516516517515513512512510506505509510512511510510509512513513513518514511512513515513508510511508507509510511509508508510510511511510513515512511506507511511509512507510508512514510509517515514513511510512512511509511511512512512512512511512512515516516514519518511508513518512511509508509512513513515518522518515514514511511509512511512513515512514509509512514516514516516514516514515511508507508508508510511508509518519515516513516513513511513510509508508510510508510511512513516513513513514512509507506506509510512510508511507512517517515515518515511513518511510509512513510505503507508513515514515513513513512511512511513512511511508507508509509508511512513513513511510509510508511507506511510510511508510511510515516515510515516509506508511510508508509509512514517519519518514513512509511512513514512513512512511510510508513515516516517517518515513509513514515508509512511512510512511512512517517516513515518514511509511509508507505508510512513512515518518519518516518515512512510510510509510512510509511508511515519519520518515515515511512508508510508510510510508507509508509513513512513514511504507506505509511513508510515515511513517514515517512511514510507509510512508509510511515513515512512512516518516518520514508508513515510511508510511509510512512513513515510512512512513512511512511511512511513511515515517518517516517515515511509511510510510512509509510508510511510513513514512512512513513508507503504508508508512515516514515511515512511511512510511510507509511507509507509512512513514513511512519519519518512503505508507510512512515514513514514513513512514510510505508509510508510513512510510508510514514514515515515515515510512512511514512513512511513511512514515516513511513510510510511510508512516512514514513513513510513512512508507512512513515511508512510511510509514513514513511511510509512512510509511510508509511512511511513513515516518518515515519519514510511510513510514516512510510511512513515517517517517513516511515512512513514513512514515514512511513514514512509513513510511508508512509510510505508510512513513512513510514511510510512510510507509508508509509506511514513515517515511508508510512511510511511513509507508511517516521523517513515520513506505511509508515516515514514515513511514515513511512509510512508506510510511511515514513512515514516519518513514515512515519509507509512511511512511511511512515513514513513511514512512511514515514510509506511516516515512510508509510511513513510514512511510514511512512509511511511512511516513512515515513507509508510509511510510513512512516516516518517515516513509507508510512512510511511512514512510509510510512511510511512509512511507512516513513511507507508513512513515514511506507508512515510505506507507514518517519516515513514511514515511509510510509511509512515515512512512517516515513513519512511514515508504511513511513511513514514513514516514513510511512513512511513508504508515518512518517517513508513515512512508509511510508510509512514513512511512508509517519514508509510507511509508510507508511513513515514518514514513510511507507507510511511511512511511508513513513513512513512515511506509510507509510512512511512510512515516515518518515514512513514513511512510511508510513510510517518515513513518517516512511509507510513514511510511510510512512512513516515513515512512510509514513511512510516516517513512514515515515515515513509506510512512508507503511511508511518515512515515514511510512510508511511513512512511513512513517512510513511508509513512508507511511510510510513510511514514516513512513513511510511512513513512512512508511513514515516517517519516513512510512509509510509510513511510511512515515520515514515511512510509505508508505508508509508512522515514515511513513512512512513510506508511514513508511513516518516516512512514514510511508504510513508511514512508508512513516515513512513512512511510511511512513515516512515513515513513514514511511510511512513510509509508511513514513513513515517515514514514514513509512513512511510511512510514514515513512511510511510510510511509508505508511510512514516515516514511509513515512513512512510509509511508512513512512511508514516513512516511513509509506512512512513513511510514516521517515516514514512513513510514511507507508507509511510516515513515513509509510509508507512513510510510510510508512510508509513516513516519513515518519513514512510507509512510507510514514515514515516514515514514512514514511511507505506510511512513513513515516512509505508505509509509507507508508506508513518516515515516513516514516508504503507510509512515513513511510513515515515514513508510509507508510511511509510508512513513512515515515514512512512510511511511514513512511514515516518516515515513515517512510509510511511511510511514510514515519519514513515513511513511511511513508508513511511511511510513514508513512513508509510510510507509510508510519517515515518516513516516515511509509510513512515510515513511513512515515515513512511512513511511510508506511511511513512511512513512510514514511510510508507506503507508508511513513511512516518518516519515512508511513511511511511509507508513515518519518519516516515508512507508506508512510508507508512510511513515517516514513512511511508508510510508508510511514511513516518517516514512513510510512510510510511510508508509508508512514513510510511511512511514510510510510512511508512511512511513514516515514514516513514511510511512511513512513512513512509515515514509512511511512508510512511512509511513514513513517515515515513511513511510509509509508510511511511512515519515517518515515513514511513511508506509509510512511509513512514512513517515518517515512507507507514514511512512516519519521516515512510512512508508506509509506507510510512511514516512514514514513508509508512511512509511507511510514515518521518512511512513513511509512513511509507510512509512514514515518518514519518516515511509509509506505509510511515513516516514513514511510511510507504506512513513510507510511513512512516512512511513512511510512508506511515511509509508511511513515513511510510514515511509506509511511513514512510508511512514517514511512511515509505513515514516515512511508510511512513514514514518516516512512511514515510511513511514515512515516512510511510511511507509506508510509510512509508510513515513515512518515510512513513509510508511515512511512512515518518516514516513515516514516513511511516514512511509510509514512511519515512513512511511509512513509513513512516513512512516515514512513508508509510506509511510511510512512511511513514515513511511508509508507507508510507508510510507510511513517518515517517513510507508505507510511511512512508510514512513516514512512513511510507507509508509509512505511517516517516515515514516512514509516513511512515511509507512517512513514515515515510510513509512508507511512512513511513510509509519518516513512508510511510506504507509508508509513512513513515514514514514515515517513511514514513515512510509510510512513510512515512512507502504509507507506505509508512515516518519518515512511513516515515508511512515510510511511507509513513510510512512512516514513509510509509508507510513515520519520521516518516513513511513508512511513514509513513513511510515513511517512508508509509507510510511516515513514513515513513510511510508506508508508506506505506509510512515515517516517517518518515512515508511508511509511513513511510511513515512512513511511512513511510510508510511511512514515515518521521518516516518513515512510507510511514512508512514510510510513512514512512512512511510508509508509510510510511514515515512513512515514513514514512511511513511506509511511510512518518515515515516513514513511514515514513511510511512512512511517511506510513509507508511507510511514510513511507510513515518516518517521521520511510509510506507513512512511514514513515516513513513513512508510508511509510510504504506511512512517518516514515517514514512508508511511508508507507507510508513511508504507505508506505507507510515516517513513513517518515511511511511508513512514510513515514512514512514512515517517518520518516519520519516514514513511510509510509505510512515511511511512512512514514512513509511510511512511508508511514514512515519515510511510509510511512515516512512512515511514512508506511511506505508505510509508512512512511510513518517517516516516513515513514511513508510511514510513518518518515517514511510512510508512510510510507510514511512508510511514511512514510511515516517509507508513509514516510510511512513511511515516517520520518515516516516512511511510515517516515514515519514509510511511512513513510510509508508510512513512514515511508507508509504503512513511510509511512512512516518514513514515514512509507507509507507508507505508515515515516517520517515513509510508506511511507508510513511508512516512512513515511510509508512509510513514513508511511512517520514515516515516513514513512511511511513512511511514513511515513511510513513510512511511506508506503504507507507510515517519515515513517518512512516517521518512514514508505506513509514512516512512513511510508502514519518518511510508505508510508505505506507506507505505502504504504508512510506510513515513513515515517515516515514509511511512513511511515513516519515513512515515512512511511511512510510511512513515515516521523523522522519521520515515513515513517515517515516517520518512513511511507508511510512510506510508509507507509511514515515520518515514511512512509506507515513508511511510514515514513514510510510511508506507505505507505509512512512512512515511513510509508507509511513511512517518516512508512515514515516517517515513516515513512512513512510513513509509504506509510511511511511509508506507507509509510509507507508508510510515516511512515511511507511510511511512515515517517516519515515515514515514512513510508510510508507510511504505505509510512514511516519516519514511512510508512510509510510511514515516515517515512513512514516511510508508507509511509512514518519517513510506508508508510508513514513513513510513512520524515514509512515515515514513513513509508510512514512512514516516515518515513512511510509511512514512513510510512511511512509513514512508508504502505504503504505507511511514511511515515513514514513513514513511510510508512518514512511508512516516518519519515508508508508508508510516518514513514518511515519519516514515515513512508507511512509507513515514513514508511509512513512512509506511511510511511510507509512510511515515516517515510511512515515510505505507506506506512513516519515512512511509509512507507509512512512514518512516515515513514514512517514515508510512507508508510509507510512511513513515518515512513516514510509509512511510511514512512515513514516518516516510516516509510510508509510509510508506509513511512514515515512511511509513509515517517516510506511515514518515511511513513508511512510511510508506509511514512512512515515514513512511510509509509510511510511510507507513512512515516516514511511510509508510511514510511511510508508515515514514515519515513512514514515515513510513511508509510511511510511514513511513514512512512508507511512512511511510508512515519518519519518515511512508510511514513511512512511515515513514513512515511506510505506504507512513509510511513515513517519515515511512515520519511506513511512512510508508513511511516516516516515516518512513507511513509511510514524522516515514512514514515512509511513508512515516511512514515512516517513515514512512511510508511509510510510509510510508511511512511512511514511509512508508505508507515510512511516516513516515513515517514515518517517514513513514511510511510508512515516514511514520515511507510510509507510514511510510510