512512513509510511512514513512508512512512514517523516514511507504503501509511512514514514513516514510511512517514515516513511510508511511510508508511513519519514511510511511511511509508511515522515514514512514509507503504508512511512512510512515514512511512514510513514511513514511513510511510510511511513517518516513513510509509511512515510511509512511513511509510511510511511511515517516514518518511507507511510511511513512513512511511514512511510512511512510513515513512515512510509507507510510511510511518519516512510513513511512512510512512511507510512512513512512513516514512514511512509512512509506510513515512514515513512509509509511519519517512511511509513512511511511512508509511514515511510511512513515515515512514510510511512513513511511511511509509512512510507511516517513512510511510512515511508508509513513511513517515513512510511513512511513516516513509508513511511512511516510513515511511514512514514515510511509510506507512512511510510508512514515513513518515515512508511515512509508513514513513513510510512518521519511510506505506509507511513513510512513512514512515513513511511510511510511511514514513513510511511512513511512515510511513512512514512512509510511512513513512511512511510512512512511514513511514513512511511513510510510511511512512512512513513515512513511511513512512510512511511511511513513510512515514513512514508508512511511513516514509510513512511513512514514513511513511512512512514511509510510511513512513511510511511511510513513515517512511512513517515512510509514511505505509514513513515513509508509510510510511512514515516516517516510512513509511510512511513511509510510510509510511511512511511516519526512503506511513512513511509509511510511512513513515515513512512512516513512511511512508513515510507505508514517514511512508511512515515512510511513512515513512511513512511511514515514512512513513511512513513511509509512511510515515512512509510510508508508511510513520519516516518513511508510508508511512513515517514516516513513512510508506507508509509511510512513514516515515513512512513508508511510508513513510513513514511511513515512512510512516518516513510511509509506510509516516516517513511510508513512508508508510516514514508510509506510513515512511515516513512513513512513512512512516513510510513514514512506510513513511512513511511510512512511511511512513512512513512511510509511511514512512509509515511515513513514512513512513517513511509513511513513511512512512514510511508510509505504508516520515514515516515509507510513512512508511510510512512513513513515513514513512510511513514517518513509508508510508510509512509511515515518515510512514515509512512511513513516515510511509511510512512512510510505516516512512517516511512512510513514511513510511514510508508510510512513513514514515513511514511510510518518516514513509510504503504503509512517519515519520515514512513509509511510507511515513513515513511509510517513511511511510513510513515516514511509510512512511510512513511512518511513512514512510512509509516517516511509507509510513512518514509510511512512512516513512510511513514512512513512510513513512515514512511514512512510510513510507506511521519513507508508506504509514516516512515517515513510511513513509508512516519513512515511511510510510510509511512513511511513513515513511512514512511513514517513512510511509508504504508515515513516517513511508513512511512514513510507508514517513511514515517515513516516515514511508506508509508512510508506510513513512509507510513519513512511513521518513509512511510510511512511512512510508513513515513515514511510512507509511512509513515512512516517519512507508508510510510511513511511515512511512514513515512512512513513509508511511512511517515512516514511515514511505508509510514510508512511512511512511511511512516515513515515513512512510511512516514509507512516514511510511508507511515519516512512512513513511513515513508511509509510511511509511517516515511510511512511511510510507509512514516515510512514518517514512507511513511511508511513513508507509511511512513522517513507506512518516515516514507510509507509513511509513514508509513514515516516515511509510508508507512511509513518518509509510512518512512512510514515513514515511511510510508509512512511515515512513512511513516512512507510508510512508515516518514511515515508509514515509508511512515514512514512514509513513510511514514509509510509511514512509514515514511512512515510512513509508510512513509512510512515513511514512512512512510511515513513515514512510506510512516517515520515511505502506505508512514518518514512511515512514511511513512513514512513511512511511512509513515512513510513512512511510511511512513511511512509509512514512511518519513510508511510511516515513512510511510511510511511513514507508511510513515520518513511510510510508513516516510506508510513511512511510510513512512510514515512510510512512511511512513508509513517518514514515513512511515514508507507508506511513513515515512514515512512514513508509512511512513513514511512515511513511514511509512512512514512512513511507510512509513512517517516513512511510510508512513512512515513511512508511512511513511513511508512514514511512514513516513511511510513513515514511508511508509512514512514518515512508507510515513511510512512515512512511507511512516516511511513515515510510508507508508512512513512515517515513513513519514512508510509511511512511512512510511513512512509508509516514511517515515515510507508511513512512513512510508513520516514511511510510507510512513514515513512511509509507510508513512511512517515510513514513514514511512509508511514515512510510510511514515514514515513510510510511514514514509510509512511503509507508511517518515513513513511512514513511513513512513514512511510511511512512515513513512510511511512512511512512512513511511512513513511514514514511513512509512514508508510510510511511511510512518516514514511511511512514515512511506507511512512516516514512515511511509510509510514511508512510511518519513509510513518519510511507512512512510513511512512511510508510510512512514515513512510511513510512512514519518512509507509510510512510511512513514511514516511507510514513515511511512513512518517517513510507505505510511510511511516516512512513511512512513511512512512510510510510518517511510513513514514511512512511510510513514513515513514513511511507503503505513515518515513511508510514514515517514511506510509511518518515512511510510508509509510513513515518519515511510511509509507510510514517515514510507511512515513515514513510509508509509512513514512512514513512508511512512517516514512513511511512513510511511510511511513513513510512510509512511511510512515515516514512511508510511509512514516516511511510509515515513512509509510512511512512513515511510512512511510512513512510510510511513515512513514516513510508512513511511511511513514511513515512510505507508515516514512513508510511511511512515512510510512513513511511510512514514512513510511511513513512513513513513511511512515510511511511512511513511512508510512513515517510514511510512515514511511513512512511512510512512513510506509506508512519515511514515516512509511515513510510509508519515510513514513513513511511511512512509511511511510511509508511513514513514516514512515516515513507505509509509512511513512513510511515510511511511512511514513514514514513510509513513514511511511513513514512514514511509511513511511510511510508512513509513514514511515514513511509508511510510511513512512513516512510515517518516515511508508511508510508509512515511513512511513514515513513510512513510511512511508507511513514515510512511511511513512514513511511508509508509516515516518515512514518515513513512509508507504509511509508512511512513512512512509511513513515521519514512513507508510508507510509513513511511513514518513511510509508513519514513508507508508507516515510513516519515514512511510511512511508509511511513512508511512512511518517512512518517511512508509507505510512514514512509508512513512513514516513511510512513510508509511513511512513512510512510510508513511513512512517513513510512512515515514513511511512513513514512511510510510512514513513511509515514508508511506507507509512513512513512513511513512512514515512511518519520521513508508506508511510507511516517515506505509506507510511515518519516515508507515516515512512509509510512513511512514512511512512509509510508512515512513513515514513510509510512513512513512512516514511511509512510509510514514513512511510513509512511512515515512511512510509512509512516518514512512512510511508508511512515512512512510511510515513512515516513514512513515513512510509510507510510514513514516515516515511507505504508510513512515518517515508510510512513513513512509509512515515511508508511510513515518516514512514509508512513513508509515511511512514515513511511513512510505506510511511511511509511514514511511511513516513515514513513512515513514512511512511509507506506508510513513518515512514510514515512513512513513512507508512510516513509511513510511513515512509511513514511512512512511509508508508510512519522519516513509508507509512517518513511509512512509507506510510509510514513515515518515515515513510511508508509508508512514517515512511515515513514512515511512510510510508514508511512514516511511517514512512516512511509506505510513515516515517514515514514512510508510514513509511511509509507508512515512513511514514513508507510515513511511508511513511509508510514513514514515515513513512512512512509507513518513512506509513515514510514512510513512512516513511510512510509512509508509514518513512512510510509510514511514515514515511514518516512511513516511508509507507507508510513513508512516516515512511508511512510516515513515513513515515511507510512513511512515513511512510510507507510512514515515513514512513510510511512510511511511510513515511508506511512512510509516518515517519515512508507510512514510511513514510512509509510519519513511510508511512512510509509513518514511511508511513511508507507509512515513513512513515514512511513514512513508510510509515513511515512514510508509513517511511512513512514514511510513516514512509512511508510512511511511513512512513513510510512513514511510511512512510513514510511513511512512512516517514513511515512509507508505510510512515514514514510512512512515509508511511512515514514512511512513514512511514515513510510510508504508511515518517515511513511512511510511511513517517518513511511510506509515513509511511514515515509512511509513514512510512510509511511513514515516511511514510511512513513511512516516517509509512513512511511510511512509511512512512515515510511509508512512512512514513511513513511512513510510512512515515510506509512514515513515515514508511511514514510508511515513513510505505510509511512514512510510513512512511511513513515514515515514509509510513512510510511517516512514515518513510510510506509511512513513513511511508509510511514516512510503510515520519511510509510514515516515515511510511513508506504507505506514514514512513515514518517515510507508511512512512513512513511512508510512516512509511512513515515511513514515513512511509510508511514511511511511510509508513513513519518519512510506509509508510514514514512512512510510512512514515515510508507507508511509512513514512512514516518513509511511511509507510510511515514515512516519515512510505503505510514516516514513513515513511508514513511512511512512513509510512510509512512513515511509510512513511513514516513509509511512513511512515513513511510511512513513515515515512508507512514513515516513513510504503503505514514515518518512511512513512511512515512513514515513511510511512514509508512517516512511504507509510513513511511512515514512517513512511513513512511513513512510509509509512512513511512513517515515514511512512508507509512513510511514514513512512513513514515514513514512511509509512511511508507505505511519518512508512516514514512512511510509515514512512514512514509509509511511512515512512516515515511511511512509504508508508510512519521519515508505508510516513513510511511513512510510513512512514515516510510511508509514513516515512513510512512513510511511512512512507509509509510511512513519518516515517511504508513509503507511513516512514519519512510510509511511513513517516511509508510513510509511510510513517514511512512513513512516516514512512509509508504506508512513510513510510511512516516515514513511513515514512509508508509508509511517517514508512512511517515512511512514513515510507508511510509512513514515513511511513514513515511513512512508508506507507511512511513516515515515509512514513513513512514511513514510510508510515517517513509509511510507511514512511511509511510512512515515511513511511515515515515513512514513513512512508507507507511512513510508513513516513512512513512512510514515512511511515513511513512512512511510510513514512510511516512512512518516512512512509508501504509508509513519519515511506512512514515513514512513514511510513512513514512511510510508507511510511512517517513515515515513511511513510510507509505510513514515516515510512514515513508507507511514515511509509512513514513511514511511512513513515511510510511508509510510510506510511512522523516514513511508503505514521512510511513513511511513515513513511512510511508511512512516518513511508508508509508507510514515516514516517519519514511510509510509511511511511512509510509517516510510510513511509512512512510508509511512511510516517518508509515515511509509511511511513512516514509512515514510511509513513514515514513514513510504502508510510513512512519511506514516518513513511514511511509512510511512512511511512512514513513514513512513513513514512510510507510513514512512513512512513512513512512508511514513513512511508509510511511511511512512512512512514515511510509510511513512514515513511511517512511510509512510512517516509510509509510513519519514508509514512510509507510513517516512507508509513509510509510510512513514520519515512512511515513508510513512513513512513510504508512513513513512511512515510512516511511510511512512512510511512511514515515511511511514511512515512510512512512512512510513511509509511516519515516517514512507507505508507509511513514518516513517516512511504506505508512510511515519517518513511510510509508507509508511515513509513519515514512514515512510512513512513513512510508511511512512514516515509511510511511510510510513515511510518519514509512513510507508513515513512516513511512512511511512513508510510512513512510512511512511512512513512512510512513515510511512511510508509514513515511514516515514511509507506506509511513512513517516514512514513514512510513511508511510511510512512512509511512520520518511514511507509510508507505511512513513516520519514512510507507507509510512518513515512511512510509512513515511513508510509511510512514515513511510513514512512512512511511512509515515513510508512513513513510509515514512509509509512513513510509512517512511511513514512513514511511513508504505508509515516516519516515516515511508513510510509509510510514515516513509507508510511512512511511512515516512510514513515513510508507507513512512510515515515515513515514514512511511510508511509512516516512510511513510511512511512512511508513512513509509514519514512512514512512510512511512512510510514516514511508509508509508509505513517515514513513513516515512508511510508512513516515515511512511512509517515514511507506507511511515518518514515512508512512514515517511515512507502505510512514515510511509511515515511510510511514511509510514515514513513512515510510514512510511515515517515513513512508506506509513515512513509510512515509511511509515514513513510513518513508512515512508513514509508510508511513518519518516512508508510507508510510513515513511509506511511512513512518516511513511511510510512513513513516514511511513513513512513510509508511514511510512514514514514512513512511510509510511514511509509508511507510511510518521521516516514510506507510511508510508508511514512510512515513511513514514514511514516515509510510511510514511515513509511512511511511511512513512516513513510511511513514512511512510508508510510511516515518516513514509509510512513512511510510510514516515517511508508515512505508511516516516514511512510509509506509512511512522527516508507509507511512513513511511512509512515514512509512519517511508508510511510509510514511512513511514514515511514512509511511512513509510515518518513513513511509509510508508514513514512513509504511511510512512513513518516512513513513512512511511513512511513511514511513510510514511507508512514513510511511514511512511510510513514516520515512511515511511510507509507508508505508512512515517517515515511513513513510512510512512512510516516511507508507512510511512520517513507509515513511513512513515512511513509509508509512515516517517515511511510510507508508511509513515514514516511510512512513514511510513510509510513512512515511510512514509507511514513515515515514510510512511513512513513512512510511510510509509511511516513515513509510514513514511512511515509507508510510513512514513515518518511510509511508510510513513515520520513511508510509511511512513513510509510512515516515511511511509510512514514512510508511511511512512510509513515518517516511512511512511515510509510511509507511513513516516513511515516516512511507503503504510515517517519515509509510512511509512512514511507511512515521522523519514514510507505508512511508512513513512514511511512511511512511513514513516513508512513512513511510511511511510509509511512516516515515515513511513513511509509511512509508512510509514518516511510513513514513513512508507508509508512512511514516517514514515512510510508509507511514515514517513508512511510514511514515513512510512513513512513515513508508506505509512511513516516514512511513510509513512511509507509515514513513519515512512511514513509510511512510511515518514508506508508508509512513514513515518515511514517515509508509509512511514512512511512513509510510515513515511513515515514514511508508510509512514513511509510512510511513516515513512512510511510508510515516513513515514515512507504507510514512513511510511511511514518517517515515512508509507509511511512514508511510511513516518515513514510512510507508511512515514511511509510512513515516515513510508512513512511511514512512508512512508513514512510512511515512511513508507512517518514511510511508510512512515513510512512516515515515513512509507508507508508511514513512511512511511511513513513515516517515515514513509513508508507510511512510511513518514509510509510510511510512515512512515519513512512514513512510508510512512512515516509510511512512511512510510508508511515516508510514513510508511511510515516514514513512515511510509512515514513514515516516515513507506508509508508512513511512512515511513512512516514511509505506509510513515514512515513512508518519519513507505508511510509510509509510514516516514510510510513514516517515513516515510502503513514510510511510512514513511511512512515513512513517515512510509510510509511511511509513513513514513512513513513513513514512513510507505505509512512515518518515512513511509506502504512518515515519515516515509509511511508511510516517516513513512509505508512513511510512513513511513512514515511512511513512512512518515514509508510508508507511518513509511516512513513515513512512512512510511514515512513514509508507509510513515514513512514512512513513514512510511514514512512509512514512512511507505507507514521519513511510511511511511512514511511512514515515512508511511511511510511512512513508509510513515518518514510508509516516514512511508509510512512511515515514511510513509508511512514513511510507513512511508512514514512518519516510508509513511510513519511508508509512510512513512513512512512513514514512515515518511509511511504505506507511517516518513514515513516513513508508510506507511512512512511513513515515516511509511511514513509510509511513511512513515514514511511513513514512513510512511512513511508502505511514515514522521513505504509511510511511514515515515512509510508510512512511513513513516516516515510508511508509510510511510511514515512513513511512513512512510511513514509506509509508515513514514513513514517516511511512511509511514516515508508507510512511511513511513515513512507509512513513512511513515518515515512511512515510508505509512512512512511512513516516512509511510512513517519516512510508510507508506511512512512515513513513512515513510512510508510510511516516509513512512515512508510510510509510511513514514515513515513513511512510511510512516516513513510510508508511512513512512513513513511512511514515508510510511512511513512512510508513514511512515516511512518515517514511505504510504506508510515512512514511513516515514514513511512512514513511513512512515516515514510504504506505514515517516511511512512512509511512513514515513515512511504508512512510510509514519515513513510508510512511514512511510513513515515514508508509512510514518514514513511513513512512513512512512510511512511512512510510512511519516514510511511510507510510511510511511515512514517514512512511512511510513513512510509510510511515515512513513510511512511511509509509508515516518523517509510510510510511510507512512514515513514512512513514512511511510507508507507511514515514513510510510512514514516515513513512513512513512510511512513513511513511510510510511512516515511512511512510508507510511513512515519515518516511514512508506511512514512513513511504503507511509513513514517514513512512512513510512512512513515511510512514514511511510512513512512513510512512512508511513517511512511512513512510512510511512513512511515517512512509511512511509509510513514512513513509507509516518519515514512514511510508505504507510512513516514511514512510511514509513515515515515515513511512512511509502505510511513514511509511515517515512509512514516512509510508509511511513514515518517516514511508512512508510511512515513509509510511512509516516514510513511509508507507508511515513516516515514516514516517512512509509511508510508509511510509512507510513516515515518516515512511512513513512510510511511510508507507510513516519519515513510512514512507506508507514512512511514514514516514512511510509510512513510510510510510510512512515517516511509510511511515516516515513511508507510511509510514515516516512511510512511512513513512512511511511511512514513513512508504508508511513515518518519514507504506511513513516513510510511515512511511511510512515518513510509510511515515511513514513515511511511513515513511510511512511513513511510504507512513513510512514515516513509512514516511511511515519516508507509508508512511514514512513514513514516515512508508505509509510512511515514514513512512510514513513514513509513514515516517509507505510515509508505509512516515516516513513512512515514515510507511514511504512514511511514514509505507510511513515515517516518516517513511511507502501505508511515517518516514512507508511515517515515512513518516514512506504504510507513514516513512514515517512509511511504504510508510517517515517515513511507507512510509510512513513517516513506511516516507504511513518513511512513510508509511509513516518515512509508512513517512513514516516515509508511510506506505508509512515514510509510511511518520519517516513513511509510508502505508510512513515516512514514522520515515513507506502500503508511510512514514522521518513510507511514515512510512516513512510512507508512515513513509510509512510510515517522520515512510505500503508512509510514515514516516516512515517514511511512516518512510508507507508511512505505509514513513511513516519515514512512512513511511512514515509509507508510510507508512518515511511514508507511512513513515515513511510513514511514513511515515511505510516513506509509512512510511512512515512515512513513513513512513515519517513510511513513509506510511512511510510510511512513517516513514515511509507506508511511508511516516512507506513510515516513512509512510510509511511515515514515515515514512511513511512508511513516516515515515504502507507506512510510512514519516512513514515514512509512513511508507511515519520519514515512502499506511511509512509513514511509512518518514515514512512513510510504504505507514514512514512512515516516517514512515515507503501504508511512512512516512512511511512512513517515512511514512515513512512510511510511510509513514514512515514515515514511507508509512510512508504510519516513511511511511510514514512510512514512513514511511512510513512513513512515515512512519517510507504511515504502511518512514515514513510512512510504505511515519522525524515508502503507506508512513514515511510508512512511513515516516517510509507506509510510511512510511513513515513516513512510511515516517519519522515507504504505504507504503508511513520520513508510516519518512509510511511513516516515512513511511508508511511510511515513510508514510510510509508509513513514516513513517517511510510505506509509508511514517520518519518511509507505505511517515512508508508509511513517521519512509508510508509507509518524524513508508511509510510509508509511515516514513510512513510511510511519517517516513511510512512511506505510514513509506508508505505513519513507506517522519517519516512512513513512509506509513513511510511511511513513514515514512512512515515510511510512512511512511510512512510512513515511512510512513513513509511510511512512516513508509512513515514510512513513512512514515514513504500505506511516514516519518515508511513515513509511512511511511516516512511510509509512516515516519519513511510511508507505501505508511513509512513514514515514518514512511510515514514518518515508508511505505505510512518517511511507507509513513511510508512516516515514514511511512511511511509513513514519517514511510508505507509513512511513517515512508511510509510515517514514511512512513511514515509508508509512514513510509512514517512515511511511512508512511510510509513516514511510515515515512510510513516514514513510509508506505507512522516511510512513515514511511512510510506511520521515508508510510512512513515518515511510510511506504512514511513512513513514518514510505508512512511510509508513515517513509508510513519521517510507508508508508511511515512512514512509510513512512513512510507511512515515519511509508510512513511508507508510514521522516512510511509509510510511509509515517516513509511514512507512513510512510512515513514512512508508509513514514515514511508509508510510509509510510512517517515514512511511512511514512513512508512511515519519514510509509511513515511513512509506507510514512514513514511513512514514512511515515513510508510512511511515515510508509511509511511513515515511513512510511515515513511511511512513513511511511511510511515516513513512515513511507508508511512511510512515513513514515512510508508510512513509511511513514514518513506510510510511512508513512512512513516520517515510513512511510511510511512513511510510511516518518514509509509506510508512510508508509512512516517519515510505508510511509511514516514516515513514512509511506508511514512507510514513512517516514512513511508510510513515516514511512511511511511511511511513512511512512513516514510508510511510510511509512514513513514513511512513515511511509514512511514517517512508509508511513514511511511511512513510512512515514511508512519515517518511504503506510508509512514516512512512513513514513516515514513513512507505505505505510512512513513512515512512512508511513518515509514515511512509512513512511511511510512513512511512514513512512515512511512510511513512512510512509512512516512512514512512513512512511510517516512508505508509512510509513512513512513515516515514513514513514511509511514515514513511514512506505509511517516514513513511507507507504511513513514518514511512512512512511514515510514514512512511509510510514517515520516512505505508510514512513515515514512512511510509512511513512514512513511514513512512512511512511511515508512512511511513512511510512512511512512515516513509509509510511512512515512513515514512512513511512512510511514513512513515511512510509510507506503506512511514516514516514513513514516515516514513511508508509510513517515513507509508510512509517520514504504510512512512515514510510512515513511511510512512511511512513510512512513510511516520514511512510511511510512511513511512511511512513514512514518513508507510511511511513514516515515514513513509512509507505507509511513513512515512508508513513513511511515515512513512513513512512511513512509511511512515515513509508512514511512514512509509507510515513508510519525523513507503505511513515514511510511512514512513514515513515514510509508510513513512512511512511512512512510509507511513513517519515513513513513513509512508508508510511512513515523520511506505506508509510512512514510513515512512512512515513513512514514515515509507509511513511513512512512510513512513513513512512512510511512513511510511511512515515512511512517513507508509510512510512514514516516512510512513512513511512513513514510509510509511517523521511510507503505505504508511514513514516517518516513511511513511511511513512512511513516513514511511511512513510511513511511512512512511513511511512516514510511510508512514514510512511511513513511510511510511511511512513515515514517515511510512509508511507510510512515518516515513513512512510508508514518516511507505509508506509513516516520520516509505505506509512513516516515515516514507507507509512512511513515515514512513513509509513515510511510511512514515512513513511511510510511514513512512512510509510513511511510514516515515513513515511509508505509515514514511512512514511508508511512512512512511512511513512513510512514513513516514513511511510512511512511513515521515512512512509512511510510513511510509512510509512513511511514518517516514512508508507506509510512512512516517515511509509512511511512513515510508511512512518525518511507505506510509509510513513516514515513512513509506507508513514516513513511509510511511511512510509511513515514513514512514512510512514515512513513512510509511512511510512512513510511515513515512511511512515513511509509512512512514515513512511511515511503503505508514513515514515513515514515518524517510505507508508508510515512514513515511517512510509513513510511510511510510511515521518512508511512514514507508512510511510511512511511515511509511514512513513515515512512509511516511511512512512512512511512514513513510509509512513512513513511513514513513511510511511511513512511510513510507512512513514511510511509511514513513512513517512512511507509510512512513515516512512509510514511514515515512509505504508512513516517515512510510511512513514513512515514512513515511512508511512514514510508510509509509513511512512513511512512511512511513517517516513511510512511511514513511515512511511511509513513514512512511515514509511510511510508509511511513512514512511510513511508511512511513515510512511515520514513511512513512512511509511511513513514510510515512512512511511512511516511514514511509509511512513513512514515512510507506514512510511515516513511512513516516511514515511511507509508508505505509511511512512515517515514514516514514513511510510512512511511514513512509512511512515511510509509512513510514513513510508512513511513520519513508510511512508513513514512511510510507505507510512512514516515514512513513514511511512511511512510511513513513513511514515513512511510510511510510513512512511511511512511508512515518518516512511511511512516515513508508510510513512510506511513513512513514512514512514513511511505502509510512517521524512509511512512512512512512513513510510510511512512513512511513515513513511511512514515514513507510510510511512509510509510512513519521512511508506509513517514510511512512515515512508507510512508512512512514513515516514514513513512511510508507506507508510512513515513513515516513512510512517518518518513512510510505505505509511509510510513518514511511509511513510514516513513514518514510509511512511511512511511512512513513512510508510508510512521523517511508507508512514515513511512511510510510512509512511511512515515513508512508513517514514512512510508511512515519518513509503506508510512513510510510516514514511508507509512514512516517515511510509509513510507509513516513512512511512514514515513513513511511511513515510511510511512513512512510510511512511512510512512512513515513516516511511511509505511512514514515513512514513511510511510511512515513511511511510509509510514514518521515509512512510514515516513509510509508508511515516521519515508510505496499499505511517517517518516516517517516514513512511511511511509509508509511513515516512512511511510511512512511512513515517513510511511515512512510510509511510511511509512513513511513510509513511510509512516515515517517516512511510508510511511513510512512512512512512510508510512512513515510511514515511513513513512512514512511511508506508510508511518521519513514513511515508504497499506510512515521526526518507503505505508515516516515515513513512515509505510512513515512513511512512512513511508511510513513510511509514513511514514514512513510511512512510513512515513512510511512512510513510511512511507511514515513512513510509510514514513514514512508510509509513519514512511512511510512514512514515519512506504508511510511518521518511509507505507511512512510512511514514512514513513513515515516513511512511511510508511510511512511510513513512512511511510515517514512512511511512512511509511515514511511513515515510509505506508508509507510515515516519518519516511508512517511510510511512512512513512511506508509514515513510511513510510511512511513512514507504510514514514513512512514514511512514515512508510511510507512513513514515514515510512512512511508510511512512513513513514512513513511511514512508510512512511512513514513512510509510509508508507509511521524517523517510504506512518514512511509511510511509506506510512515518518514512510514513510509507504506508514513512511513513516515511516512512512512511511509509511509513512515517517515514512512506508511512513511511512512513513510510511509513508512512512513512514515512513511509509510508511512511508511512515516514513511511511507512512511512513515517520524518511511508505508510513510507505508511513512515513515514512510512513511513509512513512513510509513516515516510513514515511513512512510511510514512507508510512513512511511510511510512513514512511514516516513512512513513514510513512512513513512509509510511511511507509510508511514518510512513513513512511512512516514514517513512512512510509510509512510510510510509513517519513511510510510512512511515522520511505504505509512512512513512510511514511514511513513511510511512512513511512514512511510512514511513512511512512513513513513509511513512512512515514515514515514512511508501504508507516524519515512509507504507506513521521520515509507509509511510512516514515513513512513511507508508511511510510508510510510512513512512512514514513514513514513510512511510511514517516514513512512512512512508503506510515510512511507505505508519528531518508505510513512509509515515512513510509512512510511512511512512514514516512511511513515513511511515511510510510508507508509511514513512511510511512513512513512514511510510515513511513514513510511516517516518515509509511511511510510513509504507512510511515521519511510511516521513511506507507510512518519513511511508511510513512513513512512512511514512510511512510511511512513513513514514513514512512511507506504503503510513514516517515515514517518515512509508506507509516519512508507509510511512514513515513513512508508513513520516512511516512506505509513517517513509510510511511511512512513512512512510511511513512512511512515517514511511512512512512512512512513511510511508507508512514515514513513511513512517512508506508510511512513515513513513513511511512512515519517513509510509506505511514514510511513512512513512513513512512512514512511511510512511513513515510510508510510510510514517521519512511508511511512514511510510512511511511509510511512513514514512513511512510513512512512515512515513513511511510512513515517513509506507508509511512517517515513512512512509507507511513513513511510510507512515516516515512513512516515513512514511511508511510511511510509512511516521515510507505508510509511515520519511511510510510510513514512513512511508505506507510512515524528520509508512510508514510504507510509510513514513516513512512513516514514513512514512513512512510508506506508510515515515514514513511510509512516513511510508511513512513512513513513512513514510509511511510513511512514519515510509510508511513512514512513512511512511512512510509509513511509510511510512516527524517512509509508507509504509511508511510511510513515514515515514514516517511510510514512512512511511507506508510514512512512514513514514513515519511510510510508510512512511512512512512513512513513512511512512511514519513507507511512511511511512512512512512512511515512510511510511514517520523516509509508507505504507512515514512513511507507510515519519516521515511508507510512512515513511512512513511513510507509512513511511515512510511511511510515520515512509508510507511511511511512513512514513513514514512511512512511513510511511506507513516520514517515508508510510510510510512511511514513516515514515515516516510505501501504511513515515515515518513508506506511513512515518517514511511514514515513512511518519515504498500509511508512515515518513513513515514512512510512511508514520520512512512513505506508512511513516519515511510508508510511511510510512515512515514519514510508508509512514515513517514511509509509511512515514515512508499501508512516518515517516513512516516512511507503507509513512512512513513512511514513514513514513515513512512514512511509507508510511512508512511517521519511510510511508510511514512513513512511511512512512510509510512512511517518518510510507509511511514514512511513517515511511510507506507509506505505512517517512516520522517511510511509510512513510511511510510513514514514511512513514512511509509511513514522519510511511511511511511511510511512511512511513514512514513512511509510510511508512511508509512515519523519517514511510509509507508506509508512514513514512515515513509511514514513511512512511511508509510513517517513512510510511513513512513513513510512512515513511509510513513513512510511508511512511510508511521521516510507510508510511511512510512512512512512512512511512513511510512512512512513511512511513511513511513514515517517517513509507505502507516520512506507510513510507510512515516515515515512512515515515511510511511512512515512511511509510508511513513511511512515513518518511506505503506509513515519521516511509511511510511513513512513511512511512509512512513511513514513512512513513512510511511513515515514514512513512508506510509510510514515513510511511514511513512512512514513513512514514514516516512508507503507510510512512515515513515515510509510511510512510511511511514523516511512512510510510509511514511513512512513513513511511512511511512511511512509511514512512513511513513512514513511510511513514512510512511512512511514514513513512512515513510507507509509513513513510512513512512512512513512512513515513512512512511512511511509512518519511509508510510508508512514512511512508513512515514513513512511511508509512520515511511510510512511513518517511507508510512515515515512510512511508508508509513512513514510513513514514516515516516512512512509508507506507507509512512517517516514512511512512511508514513512513517517512508510513511512512511513511509509512512511509513514512511512510512512508507507511511510514517526524510507507506510511512518521513507504506509515510508511513512513512513512513513516514512513513511512513511511513512509511513513515512514513513512512507510506509510511511513511513515518515511510510510511510510508512513513512515513513513511510511510512515518515512509509511511512512513513512512511512512513511513510513511513518520517508509505505509512513511515514514512512511509509510510512512513513515514519515513511511511510511512513512510508510514511511513515513513513513513514512513511510509506505515516515511512511512513513515516514513511509511506508511516511510510511511512513510513511514511514515513513512513513511514512510507510520519513510508508506513518513512514509509508511512512512510508514514514512513515513512511512513512512511512511511510512512514514513512514514511508508510513513512512512512512513511511511512512513512515515512514517519511506506506508513515511512512509510508510512512513513513513514513512514514515515515512511508510509510510512512511511512511511512509512513513517524517509508513519517513511509509507508509508512515512506505509514515511512512512512514512516515513512513512511512511511512512511511513513512511512514516513513510511508510509507505512514511512512516512513514512512513512514510510510512512514511510512512512515513514514511510513512512512512511513512511511513510512513513514513513512512509513513512511511510510513518514508505508512512512510513514513512509511518518512507511513515514514514511506507507509510515512511511514511512519525518512511513510510509510510508506508510512511515513514513510510510513517516515512511511512513512511512511510512513515513511513512512510509511512510513517517515512511508508508511514511510513511510510510514512513513513514512512511513518516510508510510511512515523521510502504507510509509514515514512513514513513515509509507513512514515513515517512510511508504510512513512511511512512516514513512511512512511514514513511512513514512515514512505505510514512514513513510512513511512510512512512513513511508507508510519527520513508508507509508510509512514514512514515513513513512512510506510512508509509509511511513512512512513514515513515513513512512513508508508509510512514514513515513513514516518516508504505510509511511512511513514514512512513512512513512515512517519517510504503504503508509511511519529526515508507507508512510513512512513513516514514512510512513510508507507507512513513515514514516513514512509508511514513513515511513514512513510510510511510511513514513514513511511512513512515514511511511512512506506506508511514517519512507508511524530521506498503506512523518512510511509510511508510512512512513515512513516516507510507508511513515514512512512514515514512512511513511509513511513513513512512511511510511514511512512512511511510511512511512513513512512512512513515510510510514515512511510510510512509510510509512511515523519514511518517513511509506506510510506508513510505508511514516516513515517509508507510509511515515513514514512511512513513513513511512514512513512511513514512511511511511509508512512513516511511511512511513518516511515514507507509511510512510513513513513512514512512514510512512512514511511514512510511515516514511513515512507505507514519519514508507505503505509512514516516514515513513512512512510511510512513513515514514513513511513512510508508511512511512513511510509511511516524522512510515513509511511512510510507509510510513512514515511512512512512511508508509510511517517515512512520521514508508511511512512512512513511510510513511510513515508506507511512512514514511508508509509512515514513514512514515513513513510511513513513514513513511512509506508509505509516523519512509511508513514510509512513518519518513512507505507507508512513513513510512517515513509510509511512510517518515510508510512512510510514510513514516514513514515510510509508504505506510512512513514510513516515518515513513513511510507509510510511515515513515522519510504505509513514513512514512511511512511512512512512513512513512511515512507505504506509512513514512514514515514512513512512514512512511511513512511512512513512512514513511508509512516515511509511510512511511513511514511511512513512513516517511510508508512511513516518516513511509507502507511512515522514510507509511513511511513514513513511507512512511511515523521511508512511509512513512513513512511513513511511509508511509511513514512511512513516513511510511511512513513513513514510511509511514514513512514513513512508508510512512513512513513511511510511510513514513511512513513514511511514515511508512513511510510514513512511512512512511509508509511512516524516511512513508507507508510513518518513511510507510509511512512513512512511511514513514513511512511512510510510511513511512513517518516515515513509505502504508513514512512512513516513512511513513511511512513512510512512511512511512512513510509514517517512510509512509505508524519511506507509509511513512513513512512513512513513513512513511512510511510513514510505509509510516514511510511512513512513512513513512511508507508512511513512513515513512513514513513514514511513515514508507511511510509512515513514513512512513507507509511514514514512513514512511512513514511514512515513514513514510507504505510516519516518513507508507510510511512513511512513511512510512511513516512512510512511511508511511513514514515511512512509510510510509513518518514512513513512513508509508510510511512511513513512514513512514512512511508511512512509512512512512512511511510512512512513512511512510513516522524516512510504500501507509510511514515514517515513512513513511509509513513513517519512508507508508510511514513516511511512512507511511512515513513512513512513514510511508512515519512512513512512512509509511510511509513513512511512516513511509513513514513515513511510509511511512512512512514511512513511513511512512512511512510509511513520524518505500508509511512512511513511514513513512513513512515512511512509511509514519515516511508510507507508511513512514514512513513511508510511512515511512513512512514514512512512513512514513513510511512511510511510512510513515517516510510509509513511513512512511514519516511508506510509510511512513514510512508508510513518524518512513515512510508510512515509509509509510513513514512509510513511512510511511509511514513514511512513514513513511510509510514519519514508510514514511513511509510511509511513512513513513512511512512513512512512513506508509509511513512515513513511512511512512513512512511513511512519521521510504505509508507512512517518516519514509507504505504510512512514513512514513512512513509511513512513514516515513511512513513513513509511509512512512510512512512512510510508510511512515520516513510512508510508507508509512513512516514514515512514510509513511513515515513513513508505508509512516513513512511511513510511515514513513512510510512515513516519515508508509516515511508507507510505507508509512511515515515516516517516516516512506511511509510513512512512511511512512512514514512512510513511509509513513514511510510509512516517517513511512512511512512512511511509509510511513515512511511512512513514513513511512512511514514511511513512511509510510513513512512512511512506508510512513515514513512515511512512512511509510510510511516522519512510508511513511504504513515512511508509512512512516518512512512512512508511512511513513511511510512512514513511511511511513515513514518514510510509511509511512511511511512513513513512510510512511512512513512515514518516513508503505512511513511512512513511510509512513512515514514514513511512510511514513519526518510509505505498503506510513517519515512512514513510511510510512512510512513515512512512511508515522517511507506507507509508509512515516515512511512513513512512514514513509511511512512512512513511515514512514512510510507508509510512516519514509510510513512515511511512511510508508510509513513513518523518512507507504508511511512515513515514517515507507505508509509513513514514513515516515511508509511515512512512516514513511511511512511513513511512510513512511511513514516516515512509508512512513515513512512511511512513512509513512511507510510511514514513512514513513513509509510511510513514508510512515513510514520517509507511512510515512512513512516515512514511509511508508508511516512511510512510513513513513513511512513514512513512511510511512515514513509508508513514513512511511510511512513513514513513512512513512513511512511512509511511511511511510514515513513512512512511511511511512512514519515515510511509508507511510511508511512511513514514515515513513512512511510513512512513513513511512509508510508512515512511512519518511512510512511510511514512512510513512511510513515517512513509511512512504505508514512513515516513512511512515513512510510512512514513513513513511511512511508508508511513515511512515516516512512511512512510510508508511510512514513514512514513515511511510510511513513513512512511511513514512511510512510512511512513518517514510510508511510509508509510513520523514509511516516507504508509512512513509507510510512514513512514513514515512510512513512513511513512512513512511513511512511511512513512514510512512515514513512511510511508509509510510513514513513512513514511514514511513516511511508510505508509512515516518516514512512512509514513509508509516518514513510510511508512511512511510513512511513512512516516519519519516508501501500504507511512515513515513512514515515514513512511514513514513513512512511508509511509511511512514515511511512513514513513514513511512511512513512512512510511512510512512514512513513513511510509510511511512510513515512514515511510513512511512511512513514516515511507504504507510518520516515519516512510508508506506508509513512514519515508510513513512515515516510508509517513505504508509512513513514512513514514514512513513514513512511511512512511512511508509512513513514513512512514512510513512510511511511511511512515513511513512515512513515515513510509508509508508510512514514518521519510507507507507505509513518518515511510510509509511513515520516513511508508510511515513514513511509508511515514510511511511513511511514510511513514517520515512508507509509511513509510511512513513514510513513514513513513514512511512513511511510508513513512515512513510513512511513511511511509513510512511516516513511509510512511511512513510510511512513512511510512513512510514512511511515522519512507508505504507508510512514515517516515513509512513509510509508510510510512513513512513514513512513512510511513519518510508512510511511512514512513512512511512513513513512511512512511510510509512513512512515514514513513510512514513515507511511510511510511514513513511513512512511513511513511515513514513511510508511508503511518519511509510512512511512512512512512512516515515516514513512512512513516508505509508509511513514515516515511510510510510510512513508508509511516522521515507505505510512510510511512512512513515515515511511511511512514513511513510512512511512512513514514512511508508510508513513513515514517514511510507511511510512512514512512512514512514516521516506503507509510510515513511510511511511512512511512514515516514511510511510513511512511510511513512511513514513513512516514513513509508507509512514513511510512511512513512514513509508516519513508508513512512513514515513509509510512513511509513512512515511513514511509510511510510513513512512513513514514513513509509509511513515511512512512512511511510512512515512510511512511512513514512511513511512512511512512511511513514515515511512512508510508509508509509512518520519512510512511510511511512512512515512512511510512511511512512514512512515518515514511508504506508510512515512512512515513515512513512510511511509512512511510510513518517511508514513511507506512516516516510509508509510512511513514512511512512512513515511511511511512512511515513514511512511512510513512512513512513512512513511512510510512513513513513512511512510509510509511515515514512512511512514513512510510511510511510511512513514512511509512515512512511511511512512511516521519511509508508511511511511511511514515513508504508509508512515519517513512511511515512512511510513513513518514511508508511514516514510507510511510513511511510510515516516515516514511510508504508511511514513513512512513512512513511513511513511513512513513513514515513512513511511511511511510511514512513514513513510511512512512507509511514513514515513512513513511510512511513513514514511510509512512511509513519520513507509507508509509513514514515518514511512511511509510512512513512512511510512513512512514514510508511508513513513512512514515513510508511511510511511514517521522517509508506504504506508511511512515518514511514513512513512512511514510511511512513515518514512512509507507508509512511511511512510513513515515513514513511512513515512514512510511511512514511511510512513512514506505504506511512516520527523515509511510508509510512513513509510512512511511512511513512513513513512513513514514513513510508509510514513516512512517520513509511511511511508504502506510513513514514512510515515517514512513512513513511512515513512512509510509512513514521514508508510508512513509513514513511508509512510511511511515518514510509509510513512513511511512513518519519513508509508508510512509511511511509513515513514512511510512512512514512513512509510513512514511511511513512514513514513513514515513513512508509507508511509511512512514516517512515518512510511508508509512512509510518524519509510511511511513512507506507509512513514513514514513511513513511510512512512511510512513510515516516515511509507506505506512519516515512512512512510510513512512514513512514513512511512512511512512514512513513512510509510514512512513514515515515514514512510508503502506513519521525519510506506508510512512512513514512511512514516516514516511509511513509506507508512512512513513514512512512515513513515516515513512513513509504504503507512513514515520518514511511511511512511512513513511509510510513511508513514516513511511511513512513510511512515512509510511511513515513511511512512513516511511510509512518517507510510510510513512513512511511513515515510510511511512513511518519513509506508510513513515513512513512511509508512513513515513514511508507509508510512510512514515514512514517513510514514512512509511511512511512514513514511512512512511512511511513512512512512508513514513512511512512512512511512512510511512514513512512510511511510512513515515513516511509510511513510511512509511511514511512521521511504503508510511510512515515516518513511511513512514511510505511512512511512513508508509508510514519513511512511512514516513514513513511509508507509512512512512512513513512513510510510511510511513517519519512512510511510511510511512513511513511511511511512511511510512511513511513512512510512515515512511510511513512512512513511511509511512509510512512512511512518515513511512510507511511512512511512513512511512512512513512514512512510510509511510514515513511513514514513513512512510510511512515513512512512513515517515509511520517505498502508509509508509512514513513515512513511512512515512515517519513509508509511512511512513514513514514511510513511511512513513511509511510512513514514511512511513510511512512513513510508510512513512515512512513515510509510512512510511511513514512513512513516513511511509513514513510509510509510509511517518515520519512505509508507510511513515513514511511512510514514512507507510512508512511513510515517515511513511510512511512512512513514511512513510512512515513513513513511512511510512511510509510511511515516513512515513513513512510511509512511511513512515515514511510512511512511511513512510510512513514512512513512513515519520513504504508508510511508508509512511515515512513511514521517516512510507508512511510512511510510507508510512512517517515511512513513512512511511513513514512511513511512512511513513512513513512512511514511513512511509510511511510510511511512513511511512511515512513512514516512511513512511508509510512518523518511507507507503509512512514516518519517510502504502508510512514518525520510504503505509510512513514516511513512511512515517515511513511512512513511513514511510512511511511511511512509510510511513513512514511514512511512513513511512513512513513511509510512515511511512510511516522517510509511514511511509510509509509509512512513516514511512513514515515515512512509510506504507513518520518516513508508510508512513513512505505508511516519516513510510510515515514512511512513514512512511512512512512512512515515511509510513517515512510508508505507508514523519514509511510511513512513515514509506507504507512515512512511513513513512511513514512511512514514516513511512512510509509509508510512515520520514508506507508513509511519524513510504506505510514514511512514515512513511511513515515518523517509505505508508508511511511512514516511513514513512512513513512513513512511510509508510513510511513513512515514511512512511512512513511513512510512512511518518512508507508510510512512512510513512513512513510513513515514515512513510509508505512511514515513513512513511510509509508508509512516515511511511515524524515511509510509510506502507512512513513515513515511511508513511511513513515515515516512517512511511511511510511512512512512514515514513513510510507513508512516517516511510511510510510511511512513512512513512518516514509505506509512508508511517520524515511508507507510508511512515515516515510510509513510511511509509511509508507512515514515514512514513514512513511511512513512512511512512511510512512513512513512514514515510512512511513512511513509508510512512510514517512509511513515515513510511509506510512512511510518519515512509508511513513511513510511509515526527511503504505509518515509509517516510509508507505506509511515514515514515514514512512511511515513511511510509512511513511514513512515515512513513513510513511508512511511511509511512512511513521522518511505505507511511510508506511515517515510509510510511511515521520513510511514510511514514512505507510513516517515510509510509510510516517514510508507506509511515516513512513512512512510513511512513512511513512512512511510512511512514512513511511513513512513512512510512512512514512513514513512509511512510511511513513516515509510510512511511513513512511512511513513512512512512511512514512513513512511512512512512512514511513512511511511511510510512512512511512512508511513513511512511511512514515514521522519512507510505503498505515508506508511514512515514513515513515518515516511513512511510512514513512511511510508508512516520518510509507509509511511512508510511512512515513514513511511511512512511511511514515512512512511508510511511511514514513512512510512512512513513513512512511510510509508509515521520511509512512513512512511511510511511510512515510510513511515513511510506508511513512511512512509512512514513513513512515514512514516513512512511511512515511509510511511513515512509509510514512516512512509511514516511509508508510512511512509511512513511513513515514514513512512513511512513512512512513513512511508508511511511512515513511509508511511513522522515509507512510512511512514512512512512513510513512510508507508511511512514517511509512512511513514514512515518516512512507509509508510510511512515516514516519515510509508510510511513513510512510512514513511509513518519513507508508508510510512513512512512514513512513511511512510510510512510511511511511511512513511513512518514511512512512512510512512512508507510512513515522525515511511511507504505509511511511512515511512514513510509509514513514513511510511513509508511513515514518515512511507504509515519514511511510512510513512511512513512511509513512511512519520515510508508511512513511510512513512512512512511513513514510510513511512512512513512513516513511510509511512511512511511511511512512514519520515507509510511510511512511511513512513513514510511513515515513512514512511510505507506510513513513516518515512512507504505509512512512511514514515515512513513513513513511510507510512512513516514512510510511513510510511511513515514519513514510509508510516515512508513519513513509507509511510509511512515515515511511510510512512512511511515513514512511512509513513513511513510509512513513514511512512513511510509511511513512514513512513510516517511506508509511511510513511512512513513512512512512512512512513515515512508507511510513514510513513515511511511512515514513515513512512509507508504508512520515511510511509512512511513512517517512509510514514512511510510510510510515518512516515512512511510511512512512513510510510511511512513513513513512515514511507508509509511520522517511510509510510511510505507511511512513512512513512513513513513513513512513512513512512511512512511511512511512513512513511511512510512513511511511514513511511510511512512512514515517514508507509510512512511512513514514510511513513515514517517512509506507508509508511512511512514512513513513513512514517515510508511512509513520526518508503502505507513522519510511512511509511510506509511512512514511513512513511513512513513513514513513512512513513509510511511515512510510512512512511511511510512512513515513516511512509511510512512512511511513513510511512514513514512512513513511508506506508511513513513515514511513512514511513512513512510511512511512515512512513511512512512510509507510517519515507505508513514513514512512510509508510511513515513512510511513511511513515514514514514513513512510510510509510509511511512512513513515521514508508509512513511510509510510512512512514513514516513513512513512513510508508511513512513512514512512510512508508508510512518525526524519508507503500504504504509509514513514515515516513516515513509512514513511512510511511512512506505510510513519516513513513513512513513511510512511513512511512514512517514512509512513512510511512511511511511509510514521519508505509510513511512512513513514513512511510510509512514513511515513511510511508512512514510514514522524512506504505505504511508511513513513514512512514514514512512511511515512513511513513511510511514514513512512514512513512512511509512515515513513511513512512512507508513512512512513511511511512512510512513512511511514511512516521517510505507510512512513512511511510511510510511514515516516512511511514511510512510510508511513516517514508508507510511510513519521520518508503506510510511512511513514514512512512513511512512513512513512513512511510511511511512513510512511513513514512510511511508512516521521510507508509508510510508512515515513512512511512513514513512511513514512508504510511514512511510512513513515516516515516514513511511511508507504504506511516519515512511513513516516512511511517514510510511511512512509508511510510512509511513515514511513511515512514514513517516510511511511510509511511513518524521508506507508509508511512513512513513512510512512513513514514511510512508507508511513512515513512514515513512512511512510511509510510512509511513517515514513512512513511507512512509510511513512512512512510509511517518514518519511506504508511512512514513513513514515512511511510510513517512510510513510514512513509510510511514513515513511514515517511512512507505504505509510511513521524518513512511511507509506511510515515515512510511514515514510511511514512512511511513513513515514513510513512515511509505503509511510515515513514512511508511520518513515515513511511516515510507509508511505507508511511515515516513515514514514515511512512512510511512512510512512511511510511511511513512510512511511512512517516509506507510508506509511516514514515514515516516511510513510510513515514508511512511510512511512511513514513513512514512512510507508511511511513512513511511511512513515515517517515508507508510510510511512515514513513512513511508508509511514515514512515514511510512514512510509509507513514520515512509509511512512514511509510508512514514515518522517511503506507509510511512511511513512513512512512513514511512514511511512513513512514511513519510508507510511510513512513514514515512515512511510507505511510512509513513514513516515512509508508511511511513519516514509511510508509511512513514515514514511512513510513513512515512511508509510508515515515519510508510512512511512512512512511511513514517514513511510507506508511511512511513513512515514517516511511509511510511514511512510511510512513513512513512509511513510508510512512517514514512513513510510510508508508513515516518513510508510513512507511519518513510507508512512513511512511511512514512515515515511511509508512511511510508511511511520527520512510511510508508510512512511512512511508513513514514511511510511510511509512516518514514511513512512512511510508508510512513515514514515513515513510506505506507511513514514515517519513511508507508512514512512509510510511513512512513512515515515513513513510509510508511511519520511511512513511512510509513512511513511511511511511513513513513509510512514511510511510512510510510511511515512511510513512515513512514514511511511511511511508513517516514512513512511512512513512510512510512514511513514511511513515519515514518516510504502499500503508514515514517516517512512512510513513511512514511512515519514512510506505508509511514520523517510510511510512510510513511512513514512511511511511511512513514511513511509512511512512511513511511512513511511511513514510513513514514515515512509511510510510512511511513514511511509514512513512511512511510510510512511512512512516516515513513511511508507508509512513514515512514515518515513511512509510508509512518519517511507507505509508510513514518516512511510510510511513513514513510511511512514515524518510509509512511508507506509513514514511514514513511511510511511515513510509512513513512510512511508508511511517518512509511512515513510509511512514513513513514513509516516515509509509510507506510515512511515522518513511511512509511513511510511512515514513512509512511512511507509512511509511512514513515515513515512512515515514511508508508510509512515516516515513510510511513512512511512512511513512512518519512508510507502503507509514521521513508509513515513511512512509514517520515512509510509510509511508509509511511515514514513511511513513512513510510510512511512511512513515513513516513516513511512512509514516516511505508510508505511513513514512511513513514512512512511513515515514514512511513512509512508507505507511521522517510508510510508511511512514512511512508511510512514512514513515520520518512508507506507508509512509511511512513513515516514514512511509508509512514516515515513511510508510509509512512513513514513513515512513514511515511512515511512509511510509506510513513512513513513510508512513514509512513513511516517513509511510510512513512512509509511511511511512514513522525524513506505501503509512512511509509511511512512514511513509510515522521513511510512512511513511513510511510510510513510511512512513512512514514515510510509508511510512516512510507508510515518516514516510510510510508509510512513514512511512514513515513512513510511513512513512512515517513510509514512510515523518508502502505510511515514514514511510510511517514511507507509510514522523515512511510512512507509508507511511513513511512511513515515514512512512512514511514514513512513518518510502503506507511510513512514514515512511510512514513513511513514513513512512512512515513514512511513513512512507506507509508513520525519511507510507509508512514513510509513512514510518522517504500509515513510510508510509512513515511511512515515515512511507509510512512513515514511510511513515512512510512511513512513515513514512510512510509509509509508512512515512512515514510513511513513511514517514512509506508511512510510510511511512520526516510510510511509513512511508508507511513513512513512513513515512511513514511514512510510510509509513512506508518519516511513514514514509513514511508508509512510510511513514514511513513515513513510512511513512513515512512512514519512508506508506508514511513514512513510507509515514511512511511513512512510510511513513526522512510512508509513508513512513513510508512510512508509509510512514519516517508508513513508513513515513512508511509511510514512511511507509508511513513516512512511512513511510509512517522516510507510509513512513512512513511514514512511512512513512512508510509510510512513511510512513513513511511511512512510511507512515515515516515511506508508513511511512511511511512513515517516512510514515518515514511511511507505505503507508513514516513514513510507512513514513518525516511510511511510508512512510511510513512514512515511510510512515513513514515512510511512508510511512510511512512513512514511511511515512513512511515514512513513511510510508508508515515510508513518518514511511511512512512511512512512508506508510511516518512511510512510511511509511512511512510507506507511513517527521516513511510509510510512514513511510510510510512513514513510508511513515513514511511511513513514513512512511511510510505508508511514513514514511513514512510511511512512513512513511514512513514514512511514512512512512513515512513511510511507508517520513509505506510513515520515512511514510511513514508505507511512511515512511513511514512518526518510508510512512513513512512508508508512513513515515511511511511512512511511513513511513509510511513512511513512511510514511509510512514511512511511511511510511511511518527528513506504505508509504504505511524520514511511513514515511507508510511511509513514514512516513512513512513514513513511511511511509511510511511514513512509509514513517515510511510511512512511512510512512510510511512514512514514512515512512515512512511511508508510511512514514514515513512510511507510515526530516511504504504500499507510512521525518513508512511511511511513512515514513514511513511510511509509509510509512516513512513512514514512509510515511510512512513513513512511511512511514512512510511511515513510510511517512510512512510512512509510512510514511513511513518514515514511513513514518511503504507509509511511513512516522523513508509511510510511513512511511515517514510509509510513512513512513513513515509511510510510511511513511513513512512513511511511515513512511513516513510509509509511513513512511512513512512513513515514514512512512509508511507510510511512513513513513515515518512511510512510512511511509509511513516515515516514514515518508501503505510511510514514513512513513515513511512511510511511516523516508508510511514512511509509509512512513512514514513512513513512514513512511510509511510511512512512513514513511512512510510513512511514511513515516516512511512511512511507507505508510515514517515512512511515515513514512505505506507512522527524517507507503506505506509511519518517514511512512514511511512512511512513514513513510510512512510512512514511510510510512511511515515513512512514512513513507507509511510508509513517518519518518512510507502502505511511512512513512510513514515512518525517512512513511508507506507510509511511512511511514518517515511510511511513514514512512511508509511514511509510514513513511512511512513513513512510512511515514515512512511512512513509512509508510513513511510513513513513516516512509511511513514512513513515513514514513515510506502502508509512512511511511514513515523520511508511512512511514513513513512511512512506507509519523518512515511511508508506506510513512513508512514513512515514510512513513513514515511512512508509509512515512512510511512515513511512518513513513512511511509511510510510511512518517514510513512512512511508507510511513513512510510511511513513513518523516513508509511511511512512512511511508509510510512512512512513512512513513512511511511512513516519516511509511513510512511515513510508508507512512512509510510513510512516516514512510512512512511512510511511509511513513512514512516517513511510510512513513510511510512513512513513512511509513513512511508512511512509510510511510510509512514517522526518509508510512512511508510514515518512510511510507512511511511512512513513515514514510511509506506510517516513514511511513518515508506508510512512513514511510511510512512513513515515512510511512513515515512510511515514511510508508511511511512513513513511513514512510510510512511521525514507509510511509509510511511512512515514516513511511510509512509511508511514518516513514512511515511508510508509508509512513512512513514512513513514512509512518521515508505504508509511511513512512512514513514513511511509510512518517513517513511510511512511508508508511514513511512512513512512512511512510512512511512515512510509510511512515519518510508511513511510513514513511511514511511512510506508509511512514513513515514516516513511513510506509508511513512511513511513513513514514514512512513512510509511512510509512511514517514511510511510511514516516512511511514512510511513512511511511511513512511516516511508509508508513511516518515512511511511513511507505506511513514511513515512513513511513513512513511515511511512514510510508510507508511512514523522516511513513511511511510510505506511513514516514514512510508506511511512513511514512511514515515510510510511512512510512514514510510511510512513518524519511509510511512512509505506512513511511511514513511512511512513512511511512516519515511510510512511511508509510511512511515515514509510515513510510512516512512511512511510512510510510511520522518512511510511509507507507508513513512516515513514513512512510508508513509513513513512512513512512511511512511510512518514518514510510511513512512510509512513512510512520519513508510512511512509511513513511512511512511509509512514513513509512512512512510509511510512511512512512514512513510513511509511512513516515517512510509507506508511515516517513512512513513513513513512511510510508510511510512514519527523513507507499497501505509511513514513515514515512512515515515513515515513513512511511510510513512512513512513513512509509512512509510511510512512514511510510511512515518517511510511510511510512513512512512512513511512511511511512514513513511513513511512513514515511514513511511512510513510513512512512513512510510511511511512512511509510514513512510510512512513511513512512512512512512512512512513512511512510513512513515515515512511512514512503497502504515523518515517513511511510514512515511512513512509511510510511511511511513513511510513517514511513512511511512514512513512512511513512512510512512511511510514513510516517513511510511511511510510510509510511512513512513513513513513513511514512513511512510511512512510511513512513512511511513515514512513511512512507504505511515513507507508511511518524523517512513511513518512510505504506510512516515511510513514515513512512515512513515507503507510513515515515514510510511511511510511512510512510511512513513513511510513512519519518512509507508508507512511514512512512510513512512513513513514513511512511512511511512512512510513513513513514514515515515517515508508505507505506511512510510510511512512514516520517511513515518513508508508508511516516512510511508511512516512506511512513513511511508511511513515514516516515514513512511511510512508508506510512511512514515513513510511510510514515514510510509512513512515511511512514514514511514511510512513513511512510510511512511515512511509513514513511510514513511512510508508509511512511511511514513512512514512512511513513511514519518512509508508510510517515513509512511512511511512511514513511510511512513512513511515512510505504508521530522508501503506509510512513511511512513513512513510514515516514511511513511511510508509511510512513515516515516516512509507505508510513514510513512511512513513512513513512510512512514514515513511512511513507507507509510513513517513515515511510513516515512507507505508509511512512512514515512514515512514513512511511509510511512510511513513513515515511514520519510503507513513511508506504511515516516512512512512510508509513517516518515511509510508508511511510509510512511514511514512512511513512512512512515517516512512511510509509512511512512513513512514514512514512513510511510509511513515512511512508508510512511513512513513515514515511512513510510511514521515508508508511511512515513511510511512511514516514513511507509511512511513515515518514511508507507508512510508511508511512513513514513511513512512512512511516511511513514515510513515513509508511512510514514514514510511509510512514514511510511510510509512514512512512511512513515516515512511513510508510512511509512516515511511508510511510512521520512504505507508513512515518513512512510510511511510513519519517517513508510509511507507508510511511514512515514513516513511514513513512507507508510510512514513513511513513514513515512510510509508512512513512512512512510510511513512513514513515518514513511510509510509512510510510515513513512513511512513514510511511511514513511513513514513513513514512511508507508510510512514513511509512513513511512510508512510516524527516510508505503509509512513512513514512513515515509508506511515510508509513512511513515512511515517517512511511513512511508510507511510512514513513513512511511512511509510510512512512513512512511515515515515510509510509512512513514513511513511510512515513512511513513512512510510510513512512512511511512514513515514516514513511509509510508507509510511510509511512516520520512508511511510510511513511513511512519523519511506507507508505508510511513510511513513516518517515512511507508511511513512513514511510511511512509510511511514513513513514512513515512512510510511512511512506509509510512513513513511516512515514512512511511512513514514514511512512512510511510510511511511510511511511512513514514511510510513512514512511511512512514514512511511510509512512509510513513512513515515515511511507510510513511510515519514511510508507510510512516524520515509510510508507517514507504507509514513512511512511513511513511515520519513512510510511511508510511513511511513514514512511511511511512512511512511512511511513513511512510513513511511513512512512511512512511512513512511510512512513517514514512513511508508506506509509511514513514512512513514515513511513513513514514515517515509504507510511512512512510512511513513513511513513515515516515513511509508505503506509511517524519515513508511511509511512511509513510515517516512512517514508508508509511510509512510512512513513516515513512511510513512514513512512511511510509512511511510512513511511512514513513511510510511512515518516515511509510513509508508512511512513511512508507510512512510513515512512511510513511512516519517512513514512511508511510510509508511514512512512511513514512510511512513512514513510512510512510512510512515513509509509511520524519511507510511511510509510511511512511512513514513513513511510512511512510509510512511513513515513514513514514512508508507509508511517514511512513514514512512513511513512513513513512514513515513512508508506506511508508513521521515511511511512512510513516518515512510509510510506509509511512514515516511509510514513514511510513512511509511512515518519512511510506508511512511511512513515512513511514515512512510510511511510515517513508508509511513514514511510511510508508512518513515513512515510512512510511512512512510512511512514513515516515515512511509508507510509511512517526524514509505505508506508508511516515514516517512511510508505508510512513515516515511512513512513514516512510510510511510510511512511512513512512513512512511511511512512512513513511512512514513512511511511510515517513511509508508509509509508510512523524518511510508508510511511511511511511513513514512511512512511513512511508509507511512510512521519512510514512512511510509510512515516516515515513512513508504506505502505511511510514519515515514513512514513513513512509511511509509515515515512512513519516516514511511509508505504507510510517517513512511512513512511512518518512510508510509509511513518513507509510513515513510510511512513515519519511507506508509510510515512514514515516516515518514515511505503503505505506509511515515515515515515514513516513514512512512511512514512508505509514513512512512511514513513510510513511512511511512515516513513510508510513512512514511513511511509509509510508512519521511510508509509508507515524522510508508510517520516512508508508513514515516513510508509508504508506509508515514514517513512513515511514513514513515514512511510503502507510512511513514515515511511515517514513514513510512510508510512517516512510509510512512514514513511512511508512514513513513508509509507510510516522527524513505507511508509510509511509511509512513514514516516517514514513509506508507508506509510512512514517518515511507509511513510511513512511512511513512515513514512512513512514513516513513512509508508511505509509513513513512511513511513512514519518513509511511509512511511512512513513510507507508508509519522518508511510510513511510512513517516514511511510511511511512512513511511514516516515518511506503501503509509511510513514516515515515516515513515514515509508509511512511513512513513512511511512512512513513513513512512512514510511513512511512514511510510507510515517517515514513508505503505514520518510510512510508510510512512514512513512515512513513511511510511511511512511513512512512512512512513512516517517511510509511513515513513511510510510515511507504508510514515514513515513512513511510509512514513513512512511513512512512512511515512511512514512510512513514515513511511511511512512512511511510510510509512513511513513514512513514513512511513511507507508515515518522518512508507509511512512513512514510511510511511509507510510511513519518512508507508510509512514512515515511509507511518520516510512510508511511511511513512513513512513514513511511513513514511510511512512512512509510510513518514509508509509511513513511517515512507509508510512513521524515508509507510510509510515513512512512512512514513514512512510510510510510514511513511513514510506512513513515515512515511514512508508506507512514514509510510512517515515512511512513511510510512514513512512512512513519516512510509508508512512510510512515512512513513513512511513513512512515512511509509513512512511510511511513511508511511512518526520511509508509510508508509511511510512514513515513512513513512512513512511511515515514512513516514512506508511508512511510510510509509510514514513513514513514519516514507508510511510511511513511512513513512514511511512511513512513516514512511511511513516513509508509510515513510514511512512514513511510512510516520515508507508507510511511514511513512515515512510511513513511513514515512511511514515515511508508504506509512519516514510509508508510511511510513515513515514515515512511515513514511512512512512512511511511514514513513512510512510508509510509511510517513513516520514510508510511511511511513515511510512512511512511510511510511515515513509508510511510511513519515511510512513514513508508511510511513514515514513512510511510512514513514513513512511509507510518521511504504511511511512512513512515515515513512509508508511511513514514511512512515512509513519515512513511509511511508513515514509505510511512513512515513514512510510511512512510511513512511511510511513512513511512512511513510515512515515515514514513510510509512514507505510511510510513514512510515515513512513514512512513513517519514507509509512511508506507509507509518524525517516511506501504508510512513515512512512513514515512507508510512512513512513513511513512515513514512513512511510512513516512513511511512512512510510509512510513515515511511507513512511511508511513512510515513515514514513513509506511510511510511510511511512514514515515513510512512518515512508508511510511511512511513511512513514512509510513511508508511515516510510510511511512511513517516514512511510511512510507508510513510519520518510506504507511512512513512513513512512512511512514514512512511510514513513514514516514513512511511511508510511513511512512511512513510512511510509513519516514511511510509508506508512513513513512514513515513510511512515512511511512510511510512515515514514515514511509509510511512511511511509513515517516515507500504510508511512513515514512510517527521509507508507510510510514515513511512511511512513509511510511515511513511511510509509512512512511513513513513510512513512511513516513515513513509511510511508508508510512515516515512512511513515515513514513512511509505508512512510509511515517513514512512511511510512512515515512512513513511513510511511512511511511512510511513512511511511515512511513511512514511514512512512513512512512513512511513511510511513512511513511515512513513511512511513512513517514515511507507509509510509515520516510512510511510511512514513514515515511512512512511512510510508507510513511512512512514515514514513512510507508514514516514511512512511512508509512512513512510511509511511512510512512515512513513514514513512512512512510511512512511511510510511516516512509512512512509511511513512511511512514514512510512513513510512511513513510511509511510511515521523517507506507507509512518520515510507505510512512512514512510513510509511511511513511513512511512511514511512512513512515513512512514510509510507511511511512516515512511512514511509508506507512511512514513513513516515514511513513514512515512506508511513510510509508512512512508513513513519518511510508508510515515510512512513520519515508507509511511511511512513515515510509510510508512512512514514514511511511512511513518519518512510507508508509508508508511515513513513512514513514515513512511511511510509513514514512511510515516515515513511509506509510509507507512512514515514511510515514515515511511512511511512510512511509512513513512510510510512513512514511510515519515514509509512512511516520517510504507508509510509510511512514512512515517515510510511511513511512511512513513512511512508511510511512518518513509511511511508513513512513512515516516510508508509512512511506508512517517516514515512512510508506509510512511512511512515516513514514513512511510509512510511512513514512513513512512512511514515513508509510512510509514513511511512515516512511513512512511512512511513513512515509509510510510510518521517508508511512511511508509512512511512512512509512513511515514515516515512510510508506506506510511514514513513514515514514512512512512512512511511514515515518518514510507508509510505505504507511512510513515513513514514518515513513515514515512510511511513512510508510512511509511514513511511512515513517518512510509507507506507509512512512512514513514513514512512511510511511515521518511511509511511510511510512513512513513513511512511511513513512512510512511510511512510512511511512513513511513511511513511511512511511512512513514512513512512513512511511512515518516512510513512509512515510507505507509512518521519513510509512512513512508508512513512515511511511511509508509510510512514514513519518513513515514514514515511510512511514513512512513513511511509508508508509513511508511513513514512522521515508509511510510508510513513514514514511509509511511511512512512512512512513513513512511511509509510513516514512512512511512512513513514513515512511513513515512510509511509515515514510504504507512513512514514513513513512513513516515514513513512511511511511513513517512511509513512506510512510511510512514514513512514514511511509512510512510510513522522517510510511510512512512512512510506507510511511511512513512512511512511515512512511514513515512511512513512512513514512511511510512512514512513515515512510509506506503505509518522524519512507506511512511510509510511509513512511512512511513513514513514512513514512511513513510511510511509511516521515511509511511510508511510510511509512512513513511511513512513513512511513513515515513516513510505510509511511508510511513517515514515515513513511509507510511511514514515515512512512512511507505508511512515520518514509509508511512519515510506509511512513514514515513511510505505511511514515512513513513512513512511510509511510514521519512510507509511512514513511511511512511511511512511511512513512513511512514515513511511509509509508509510512511513512513514515515516514513509511512509509510508509513513513514513514512513514510512512515511512510512514515513512512511512511512512511512512512513514516513512513513509508505505508511510509511516516517518516511511508509511512511512511511511514512513513512513513511511512514511511512512511511510510511512511512513510512511511514513511510510511511510515517524517513512510509511510514518519512509508507508507508510509511516515511511512514512513513513515514512514512511511510512514512511510512511513512515512511512511513511513515516517515516512511510505500505504508512516513515515513513512512510514512511514515513513510513512509510512511510511510509513515512512513511512511512512511512515517513512511512512508510511509508513522522514509510510510509509509508511517515511510511512511510508511512509513512511512514514513515516515512510512512512511510510515513515513511510510511510511510511512513511512513513511511512511510511513512514514515515513519511508504505506508510512514513511511513511512512514513513512515514512511510512512512511509512515514511511510511509511510516512512511512512511511513513514511511511510507510514516509515520518511510512511511510512513512512510513512512511509509512511511511512512513512513512512511513512513513515511512516509508507508510509510512513512512510514515514515516511513511513514513513514513511508510508509511511508511513515512512513515515513512511511512511510513512512512513515512513512513511512511510509513511512510509510512511515514515515516515514512511506502503504508513518515523521510502506512510513515514510511511512512519519514511512511511509511512512511508510510512512513513512513512511511514511511511512513514515515519518513508508507507508511512512515512513512513513514513513512509507510519519512508507507509512513513516517515511508507506512513514512519515511508509511512511515513512511514511511511514521516512509508511509511514515516514513513511511509506509510511509511512513514515513513512513512515515515518517511510508507505510510512511510512512511510514511512511512512512518523515508507508510512514513513514514513513512508511512509509512511510511510511514511512513513514514511512512512512513514511511508511510510512508510511511512511515514514515515512510512510513510513513514513512514513508505506508512516511512512512514512515512511510510512513512511512510511511510511510511515515513511517522519511508511511509510511511512510512512513514511515516515509509507508510511511514515516510510512515513513512509511511511510511513513511511511510512514514512510510514513513511513512512512514514515513514513512508508507509507513516512511510510513510511512513511510513512514513512513512514512513512512513511507509511512513512514513511511510512511519524519510507509514512507506507509515515515512513511511512512510508509511512513511512513516521516510505505510515515516513508511509508507508513515513513516515514513514512509507507511511512510514513513511511513515513512512512512513512513512512514513513512510511510512516519513508504507511510510510510510514515521524518510505505507510511513513512511513517516515510507506510510510512512511513511512512513513512511512515515522524518508500502505506511513513515515515512512511511512511513512512512511511513513513514514513515514513511509505506507509510510512516513512512512511514512513513512512512509512516516512519517511508515521515504503505508509511511514513514514512513513512512512513513513512514509511510516515509510509511512511511515517515511511512510511510513514512510507508508511511513515513513514512510512515513513513513510512508507509510512511511509509513513512514512515515514513513512511514515512514511508508511510511510512511511512512513513514513513512511510510512515520517513510507509513512512508512510514512512513511510511511510510513512513513515514512512512512512515512509507513516513511512510511511510510513514514511510509510512514520524522511506502501502507514514515513512513513512513513512513512512514511512512511511511510512513512513513512512512512511510508511511511512512515513511511512512517513511511511512512509510512515512512512512511515515510511509512515513515513512508509509509512513511514510511513515513512512512512512511513512511510513511512513512509511510516518516511507508510510513516519517