514511512510512512513512511511510511514513511511511512514514511509515514513511513511508505511514515515514512512509510510512513512514513509511509511519513512517515512510510511513512512512512510512512512514512512509513513512511512513512512511510513512512511511512511510511512512513511512511512509513512512511515511514513514513510511510508511517512514514512513511512510512512507511515511511516513507512517515512511509510511513513511511513512513512511512512513513510511510514511512513512512514511512511510511512513513512513511513514513514510512513513512511512510512512510513509510508510511514511511519514512512514513511513514513511508510514512511512512511514511512513513514512510509512512512512511511512512511512513512512511512513511512512512513513515512507511513513509514513509510512510515512510514511509512512511509514513512512515516514511512511512510509512511512513513513512515515513510510508511512515514515509507510510511510513512511511517516509510513511514510511512513512513511511512511513512512513513511512512513512513512513510513511512513511511513513510511509511513513513514514509512513512510510512511512512513514513514512511512512513511514512511512511509510510511512515515514510509511513515518516507507508508511517517513513515509509512510510512515513509509510511508512516513512511512514512511512511513510512514512512512514513511512512514512511512512512513511512511512515512511510513515510512512512512512511513512513511508510514513509515512511511513513511512513511511511512511512513513515513511512511512512510512511512511512511512514511513513511512512511512512512513511511513515512512511511512514513515513511512506510511510515511511510512511513512512511513512512515513513513512513512512512512511512511510511512511513512512510513511510511511514514513513512513511511511512514511511512514515513514515512511510511513513512511510509510511512511513512512513511511511513512509511510513513512511512511512511512511513512515513512514512512513512510510510511511514514512512512513514511511511513513512510512511510511512512514512513512511511512512512511512511509512512512513511513511512513513513510512513512512512512513512512513514512513513510512512512512511515513511511511514513511510513513512508507507515512513513513512513512511512511512509511512511512512513515513515512512512512512513512512512512510511508513511511512510512514512512513515512511512511507510515513510506512514515513512514511512511515514512510511511510509511514513513510512509513513512514512512511511512511512512511512512511511511512511513513513511513514513512514513513513512513512514512510511509511512511514513514513513513510513513510511511512510513512512512512512511513515513512513512513513510511511513511511513512513512510512510514514512511512511514513516515515509509508507506510511515512512514513512513512511512513513514512511512511513513511513512513514511513513513513511511511511510510512512513512510511509513513513512511512510511512512512512513513511511513512511512512512514511511515513512513510512512511512512512512512512512512513513511511511513513512512514511511511510509511511512510513513511511513513513512515512511511511511511513513513512514512512513512512513512510513512512511511511511510512513512511512512509510511512512512513511513512514511512511510511511513515513515512511512513512509510512511510513513513514511514512514512510510511512513512513512512513511515512511512510511512514511512514509512511512511513512513511512511510513513513511514512513513511513511511514511513511511512511514511513513512515513513512513515513510512511511511510513513512511512515513515513513514512511512511512509512511511510511512512511513510512511512512510510512511510511513513511512511513512511512510514512513513511513515510511510510510512511511512512511511510514512511512512513513510512511512512513511513513512512513511512512513513511513513512511511512512512512512512512510513510514513512512512512511511514512512513511511512511513510512513511513514511512511512512513511512511511510511513512511511512512513515513513513512510510511515510512513511510511511514513513512513512513512514512514511510509511513514512513511513512513512511512513512512510512512513512512511510512511510513510514512513512512512513511512512512513512513512515512509512511513513513514513513512511512510512513510511512512513512513512514512511513513512512511510511513512511513512510512512511512513512514514511513512512513514514512513511511511512511512511515513513512513511512512514513514514511511512511511512513510512515512511511511512511511510513512511511512512511511512511513511510512510511512512513510511512511513514513512511513510510512513513511513512511511511512513512512511511511512514511513510510511509511512512511512511511509513512511514512513512513512512512512513514511512511513511511512512513512511512512511513511511510511513512513510515510511512513515514512512513511513515512512511512511512511513513513513511514514511511511513512513512512512512510511511514514511510510513514513511512515512511511511512511511513512513512513512512512513513514514512511513513511512511512513512511510510512511512512513512510514512515512511514512511512513511511510511511511512513513512513515511512511510512511512511513512515513512513511510508509511508511512511512512511511510514513513513513512513511512511513511512511512511513511511510510513512512512512513512515513514512513515510513511511510511514509511510511512512511511511514513512514512513512512511511513512512511512513511510512511513512512512513512513512512512513511511513511514513512511511515513512513512513512512511509513512511510513513512510513512513514514513511512512511512511512512510510510514512512511511513512512513509510512511510511512511512511512515513512511511511512514513511512511512513513513513514513511513512512513514515511513511512512514512512511513512510511512512512512513511514512512512512512510510511511513511511512513512513512515513515511511510509511512512512511512511511511512512514512512511513510512513512513512512510512513511512513511512513512512513513512514512513513512511511511512510512511510512512511512510511512512512511512512514511510512514514512511511512509510513511513513514512512512511510513511512511511511512513513512513514513512513512513513510512511513513511513512513512509512511513512511511511511511513512511511511513512513511513512514511514514512514511512512513510511513512511511512513513511511513514513512513512512511510512511512511511512514513513509512512513512510512513513513510512511513512515512512512513511510513514513512512512512512511510511512512511512513512512511512511514512513513511514512511510512512512512513511513514512512512513512512512511513512511510511514511512512513512511511513512512513513512512512515512512512513512511511511512512513514510512513512511512512511512511510513512511512511513515513512511513513510511512512512512512510516512510511510512512512515515515513514512512512511513511510512509510513513511512513515515515510512509512512501507521519511508515509509510512512512516515511510512512513512510510511512511512512512514513512511511512511512514513509512514512511513512512511510512513510513511513513513512513513512511511509512512511513513515513511513512513512513512512511512509512515511513511511512514507508512515513512511508511512515512511510512511516514511510513512512511514512511514513513514512512511513512513511511512512510511509511508512511511514517515511511510508509513515510512512513508514513513513512515510509512513517513510513512510511513512509513511512513512512512511512512511511510513512512511512514512512511511512510513513511512513513511512512511514513512512511513512511516511511513512511512510511510511512519511511514512511510510513509511514517514511513511509511512511516512513513513513511513512514511513511512511511511510512513513512513508508509509514519519512514508509508510508510511510513511513511512512512512512512513510512511511512514513513514512511513512512511512516512510510513514512512512512513513512513512512509511512510513512514513511511510513514509514514515510512510508512511516517512511511510512511510512512513511511512512514511516514514509512513512510512509510510515516512513511512513511509511513510511511511511512511514512512511512513513512513511512512511511513510512512512511514511511511512514512513511511512513512512512513513512512511513510512512510511511511512508513512513512514512513512512511512511511512513514512512512511512513512511511511513512513512512512513512513511511510513511511512513512512513511512512511509513513512512512513512513512512512512514513515513511511509512510512512511512514511512512513512511513511510511512513511513513511511513512513512512512510512512513510512510510513509511510510511513512512513512512511512513510511512512512513511512513512513514513512513511512514512510510513512511511512511513512513513511512514512512513514509509511511514515511513514514512512513515511512512512512513511511510513512512511511511513511512512513511513512512511514512512512513513512512512512512512511511511512511510511512514511509510515516514508510512513513512511512512513513512511512513511511513511509511515512513513514511512513514511512511513511512511511512517513511511512511509507511519516512510509513513513510510511512509512509511510510511513514514513512513513511510511511512512511510511512513513512513512512512512511515512512516512512514513513511511513512512511510512512513514516511510510511512511512513510512512513511511512513512512513514513510511513512514509512512511513512510511511512515514512511511512514512512513510512509512513512511513513512509511511515515513511511514514511507512512512511511512511513512512513513513512512511513513511513511513512512512512512510509514510513512513511511511512512514512513512514513513511512513515512514508509511514512511513510509512511511515512513513512513511513511512512512513512513511511512512509511512512513513515512512512512513512512513510512511512512511510512514514513513511511510512513511512512510510510512514513510511513512513515515513512512511511510509509510510513514511512511513515513513512511512513511511512511511512512513514514512513512510512513512511512511511513513513511510511510510512513512512512512515515513512512513511511511509512512513512515512511513513513513513511509512514511512513511511512512511511511512513512512513510512511511511511512508513515514512513513510511512512513512511513512513512512512511511513512514512512512514511513512512512512511512511514515513509508509515513512512515513510510513511512515514512512510510511515513512511511510512513511513513513514512512513511512511513511511511510511510511511513512514512512513513514512511511512515512513514512512511509511512508511513513512512511510511512511513514513514511514512511512513511514512513512512512512510510511511513513514512511512513512511512511512511512512513511514512511513512513514512511513512512511511512510512511511512511514513511511511511511514512513511514509511512512509513513512511512513512511513512512513512511514512513511512512511512512513511511511513513510512513514513512512513512512511511513514511513511511509512513511511513510510510512515513511513511510509512511514512512514515515513510512504510510514514516511513511511512511512512512514512511510512511513514510512513512513512512512510511511512513512514512513511509511512511512509512513513511514513512511510511513512512511513511512513512512513512512511511510512511511511513512514512513511512512511512511513511510512513513513513514513511511510510512512512510512512511513510512512511512512512513511512514511512512513513510509511512511513512513512513512513512515512512512511511513513512511511513511512510512513511513512512512513513513511511510513512512512512512511511512513511513513512511513512511512511514514511510514513511511511512511510512512514511514511512511512511513512511512514512512511511512513512512511511512511512512510512512511512513512513514511510513513511513510512512511513513513514512512514511511512512513511512512513511512511511512512511510513512510513512512513511514512514513512512512512514512511511512512512514513513511512513511512511511511511511513512510511514511512512511512513513514512512513510512512511512510511513513513513512512511509514513512511511511513511511512512512514512513511512512514513510511512512511513512512511513512512511513513511512513512511511511511513511512511511511511512512512511513513513512513513511512513512512512510511512512512512511511513512513514512513513513512512512512513511510511510511510512513511513512512513513513513512513512512512512510509511510513513512511512513515513514513512512511510509512513511511512513512512512511511512510512510513514514512512511511512511512513512512511512513512512512513512512513513513512513511511511510512512511512512512511513512512513511512513511512509514512512509511510512511512510513512512514513515512510513512511511513512511511512512514513513511511513512511510510512512514511512510511512510511512514515514514511512513512511511511512512512512510512512512513511514513513513511512511512511511511511512512511511513514512511512510511512510512511511512511513513512512511513512511513513514513512509511513513514512511512512511512511513510510515514509511512513512513510508512513513512513511512511510512512511512512510512512511513511513512511511511514512513512513514510513511512513512515513510512510512512512511511512513512512511512510512514516513512512511513513513508510513509512511511512513513511511511513511511512511510512512514512512512512514512511513513512512510509507508502508519520518515509511511512511511511514513511512511510512512511511511511512512510512513511512513513512512513511511512511511511510512514513516514513509508508512513515516509507512510512513511515512512509510514512511513511513512512512512513514515513513511512511512512512512508509510511513512510511513512511512513513511510511513513509513514511511512514516514513512511510511510510512512512513512510511511512512512512512512512513513513513512512511511512511509512511515513511512511512511511512512515514513512512511509512510514515512512511508508511515512513510509512510511518513508512515513511516510509512513515510512512514512511511510510512510510513511511512511512510512511515511513511513513512511512513513514510509512512513512515512508508510512512512514513514513514511511511513511512512511513512513511512510510511510512512509511511512512510510511513513513515512512513514513512514512512512509513513512512512512512514512511511512513513511514511511510510512511510511510512514514513512512512511513512513512512513513513511512511514512512513511511512512509513514514513516513513511512512512512511511510512511511513510511512514513510511512512512511515510512513513512511515512510511512511510511512512509513511513510511510511511513511513515512511512510512514511512512511511512514511514513512512513511513511513511512510513512511513512511511512511511509511510511514512511512514513512510511511511511512513512514512514512512514512513511512511512511514510512511513511513514512513511512513512512510512511512513512513511511513511510511510511515514515512513512511514513512512510514513512512511510512512513512511512512513515512511511509511511511512513515514512515511511513512512511512512511512509510513512510512511512516513512512514512513512515510511512511510510512511512511512511513512512513511513514514512513513513513513510511512512513512509512511512512512512512514514513514513512510512512512511512512510510513514512510512514512510512511511512511511512510511511510512512511513512514512514512512511512512511511512513511513514511510512512511511512511511512511510513512510511513512513513512512512512512512512511511512512510510510508511511510509511513512512512513511512511512513512512512511510511512512513511512512513515512512512513513511510512511512512512512514516515511514512513513511513510513513512512512510513511512512512512512511510513513511511509512510510511512511510511511511511512511512510511512511510512512513512513512512512513512511513513512513512513512514514511510511511513512512512513513513513513510511512512514512512512512511510513512512512511510511510511509511512512511510512511510512510510511510513511515516516515516514516513511512512511511510512511511512510511513513513511513514513512511511511512512513511512512512513513514512510514511511512511512511512510511512511512512514514514513513512513513512511510508511511512509513512510511513513512513512512512512513514513512512513511510510511511511511510513514514513512511512512513513514513513513514512512510510511512512512514512512513514514512510511510512509509511512512511510511512513513512514512512509511510513512513511512514515512513512511511513512513511513513512511510510513511515510511513512512513515515514514514512512512510509511511513512510511512513513512513513512512513514512508512513511511511512513512509510511513513512512513511511513510512513512512511512511513511513512513512515512511511512512512512511510511514511512512515512514514511512513512513512511512515511512513509510512512511510511511509512511511512513510513512512513512512515511512513513513511510510511511508510511514513513513514512512511515513514511509511511510513513514513511511512514513511513511511512514513515516513513512511510511512513511511511509511510511509510513511512515511512510511513512511513512511511511513513512513511512511511511512513513513512512511512509511512511510512511513513512514512512511512512512512512512512513511510512510508511512509513512512511514511512512514513514511513513513512511512512512509511511513514513513512513513513512513513511510511512512511513511513513513513513512513511512509511512510510512512513512512513511511512512513513512514513512512512512512512512512513512513512509509510511511513511512511512511512511512512511511511512515513512512511513512512512512512513512510513511511511512512511512515514513512512513512510510512513512513515514513510510512511510510511512515512513512512511514513513511511510511510512512511512514510512512510511512511513513514513512513512512514511513513513513512510512511513514511511512513511512512509512512513510511510512511513511511510512512512514513514514516516512511510511511508511511513511511512513511511512512513511512512513513514512511512508509511511511511512513512513512512513512512513511510511511512510513511511511516512513513513512511512513512513511512513510511510509512512511512511512513512514511512512510511513511511510512511512512513514511512514512511509510511511511512513512511512509512512512514511511512512511512513512512512513513513511513512513511512515513512512511511512514514512512515513511511513513512512512511511512510512512512512513513513512514512512511509510510510508512511512512514512512511512511513511511512512511513513513513512512511513513512514512511511513512512512512510511511511512512512512512511509513512513512513513515512513512515513514511511511510509512514511511511512512512511512511511511512511512512512513513512512513512513510512513512511513513513510511511514511511511512511513511513513512512511512512511511512513512514512512513514511511512512509512512511512511510511511511511512512512511514510513511512514512513513514514510512512510511510508511512512512515514514512512511511511513513514514512513513513512512512511512513511512511511511512510511511509510511512511512512512511514511511511514514513511512511510511514512511512512512511511513511513512511510510512512512514511512512513510513513512512512512513513513512512510512512513512511512512514513513515510510510512512510511512510511511511509512513515514514514513510512511513513515512512511511510511512512513513511513511512511510512511512514511512511513513513513516512511512512508513510512512515513511512512511511508512511512513512513514513513511512512511511511511511512512512511511510512513511512512512512512513513512511511512512513513513513511512512513512512512512511512514512510512511511511509512513512513513511513512511511513511511512511511513514515512512512512512513514511514512511511510512512512512514510510512512512513511511512511513512512511510512512512515510509512510514513513513511512514513513514512511511510513512512511512511512511510512513512512512511511513511511511511512513510513512512512511513512513512513514513513512513513512510510510511512511511511511512512512511512510511510508511512514515515515513515512513512512514512510512512512512512511511510512510512509512511512511512512513515514511512512513512512511511512513512511511512512511512513513512509512511512512512511512510509512513510512512513512512511512513511510512512512512513513513513511513512512511512512512514513513512511512511512513510511513514512513513512515515512510513509510512508510512512510511511513515513514514512511513512512513511512512511511513512514510513511511511512512512512515510512513514513512510511508512513511513512510512513513511511512512511512512511512512511512511514513511513512512513510513512514513514512513511510511512510512512512511511514511514514509512511512512512512511511512511511511511513513512511511511513513511512512515511510513513512512511512513511510512511512511511512511510511512511512512513512511511510510510512513512512512512512512514512514511514512512512514512512512512512513511512510513512511511513512512511514511512513515514513515514513511511510511510511510511511512513513511511512511514512514512513511513513512512512510511512513511512512513511513512512511511511512515512511510512513512514513511512512512512513512513512512513511513511511512510513511511510511513511513512515512512512513512512514512510512512512512511512509513512512513512511512512513511510512512512512513513512515514511511512512512512511513512512511510511512511512512511512514512513511514513511512513513512510513510513511511512511512512512513514512512510512514515511510511511511513512512511512513512511512512511511510514514513514514512513512511513510512512513512512512512511512512512512511512509511511512512512512512511514512512514511511511511511511511512511512512513513512514513511512512513513512512513512512513511514513513513511513512511511509511511512510510512511511512511513512514512511513513510512512513511511512513513512512514511511511511511513510511512512514514512514511513513512512514512513511512512513512511512511511510511511511512511512511511510513511513511511510511513514512513509512512514513512512511512514513511509509511514514513513512511512511512512511514512511513511511511510513515513512511515511513514511511512508514511512511511512512512515513513511513512511512513511511511510510512510512512512512511515512513514515515511511511510511512511512511512513513510511512512512512514513512514511511510511512513513513511511512511512513512511510512511511512511511514513513510512512515512512510510511513512509510512513512513515513515512512511512512510512512511511511512511512511511511512513512513511512514512511513512513514513512513512511510511511511512512513514511510511511512511511514513512512511512513510513512511512512512512513511511512513513513512513511513511512511511511511511513512511513513515512512511512512512509512512512514513513512512513512512514511513512511512510510510511511514512512513512511512512512513512510511512512512511510511511511512512510511511512511511511512512514512512515514511513511512513512515514511512513512514511512511512511511512512512514511511510512510513512513512512511511511512512513511511513513513512512512512511511513512511509510512512515513514512510511511511512514514513513513512512512513513512511512510510510512511514510512512511514513512513511512510513512514513512511514511513512511511513513514512511513513512513512512513513510508510512511513513513512511512513513510512512510511512511510513509512511511514513514514512512513514511513512510513509511510511511512514513512512513511512511512510509510511512512512513511512512513511514511513513513513513513509514513511512509511512512512512511511512513511512512514515513515512511510509512513511509512512513512512512512513511511512512512511511511510511513512514514513512513512512512514512513511509512510512510512512511512511510511513511513515514513514511513512511510510509512512513512513512512513513512513513512514513513512510511511511510511510512512512512513512511511512513513512510511509510512512511512514514512513514511512510512513512512512513513512513513512512513514510512513512512512512511510511511511512510512512513512513512514512513513513512513511511511511512511510511510510512512513510513512513512511511513512511512510512511512512513511512513511511513511512511514512513511513514514512511511511511512513511513511513515511510510511514511510512513512512512512511512510513513514514511512508511512512512512513511511514510512513512513512511513513515510514512511511512514511511511512511510511513512511513513512512511513512511510511512512512513513512512512511510513511511511512513511512513511511513513511511512513513512512512511511512511511513512512512513509511511511514511513513513514513512511513513511511511511513512513509512512510511511512511510512513512512511511511512512512514512514512512511513513513512511512513511511512510512512511511512513512512513514511511512511511510509510511511514513511514512513513512512513511511510511512511513511513510513512512514512513514514511513513513510512510511512511511513511512512512512510511512511510512512512512512514513512512511512513512513513511513515511511512512510512512513512514512511511513511512512514513512512513513512511511511512511510511511511512511513511511512512510512512512512510512512511512512513513513513512512511512514511513512513509513511514513512511512512513511512511509512514512512512513511512510511511510512510511511512512513512512512513513513513513513512512512512510512511513511512510511512511513511513512511512513514514513512511511512512513513511513512510513512512511511509511512510512514512510512513511513511512513512512513512515513511511511512512512513513513511512512513512514511514511512509513514511508512512513511515512514512512512512512513512512512513514514513511511510509511511512511512513512512513512513511511512512510512512512511513513511513512512513513513510513513512512511512513510512511514511512512511513511513511513512513513512511509513511513512512510512511511510512510512511511512511512513512511513512513512512513513514514512511510511511513511510513512513513512511513512512513512511512512512511511512513512511511513511512512513512510511512512512515513513512510512512512511511513512510511511513510511513513512511511512513512513513512512511512512511512509512512514513512511511512512511513510511510510512511513512513512513513511512512511512512511511512513512512512512511513513512513513511512513511513511512515511509511513513511511512510513512512513513514512512511513510511512511511512511513511513513513513513513512511511511511510511511512511512513512513513513512514516512509510511512512509512513512512510513512515513508508512518515512510512509512511511511510511512513513512513516514511512511513513512512510512513512513510511511511512511511511511511510511512513512512513512513512513512513512508508510512515514510513514517514512510513513511512513510511512511512511511511511515512514513512511513511511513514515512511511511513512512512513511512513512511510513513511515511511512513512515510510512512512512509510511511512512513513511512513511512511513514512513511512511511513511514511513513513513511512513514512513514515510511512511511511510512513512512512511511513512513515511512511511513511511512513511510511512512511512511512513513512513512512508511513511509510513513511512511512512512514511512513511514513514511513512512508512508511510512512512512512512514510512515514514511510510512513512511512512511511512513513513512512511511510510511512511514512512512512513511510512512513514512512513511511513511511512513512511511512512515512512515511513511512509513513512512511510513511511512512513511511513512514511511511510511511511510511515513512512512513510511512511513515512513513514513511511510511510511513515513513514513510512513511511512510510510513510512511512511511511512512513511513513511512512512512512514511510512513512511514514510509509511512513515518513508512511510515509509509513511512513513512513510508515515514514513512510511513512510512512512512515513513513510510509512511511511509513511512516512512512511514512512514513511510512510508510511512512513511514512511511510513512511511514513512511514512511512513512512513512512513514511512511513511511514511510510511511510511511513512509513513514513513512510512514515513511509512512512512510511511513513511513512510513515513512512514513514511512512512512512512513510512511512510511512510511512513512511511512512511514516515512510511511513511511513513510512512512513512512514510510513512512515517511511510511514513510512510509511513512512516515509511510511514515513512511513513512511515513513512513512512511511510510510509511512510510512512513512511511516513513515513511511509509513514511511514512512512513512511510512509516515511510513513509513513512512511510512515513513511513513514512510511510512514509511509510512510511515510511514511512512513510511512512514512510512511508512513514514513514512511513512513512511512514513512513515512511511509512513512513510512512513512511512511512513512513512511512511514512511511512512511512510511511512511512513512513511514512513512512512513511510510512512512510511512512512513512513513512513511511511514513512512512512515512509508511515513511512512513513511512512511511512512514512512512512512511511511511513511513513511512510514512511512513513512516511510511512510512509511512511512513512512514512511511512510514511511513512512512508512511513513514515513513513513513510511512514512510507510512509511515514513509510509513512514513512511513512514512511513513513513512511511512514513511511512513513512512513512514515513511511512513511512513512512511512512512513512511511513513514511511511510513511512513512515511512511513512512512512510511514515510511510512512515512509511510510512513513513512512512508513511513512512512510511507505512514513510513514514513515511511511510512513512511513512515510513514516517511508511510513512511512512511511513512512512512511510511509511513513513512514512513512512512509510512511512511512511514515512510513513512512512511516513510512513512511509508511510512514513512510511512515513514512512513513511511511510512514512512512513511511511509510513511514514512511515511512510510513515514514512512511513515512511508508511513511512512514512512515512512511511511511514516515515513508506512512510508508509508511513513513512512514511512512513513515513512511510511512512513512512515512510510509511511517512511513512514513513513510512518513511507507511517509503509515513511509517515516517512514513511513508511514510513514511514514510509512511512513513512512511512512511513512512513511512511514513512512511513516511510511512513509512510511511508510507512514517511513516513512516514511511513509510512509505509509513510515516512513513511512511511513515514512511510510512511511515513513514514513512513513513512515511516512510514513513512503504511517519512510511510509512515510514512505512519510505508519515513513515513511508513511512512512511511512512514516513509511510513513510512511514511513513512513512512513512513511515512510513514518512510510513511512511511512508511512510508512516513510510515511511516516515510511511512513514513511512516513508509512512514513513511511513512518519507505508513513511512511513511514513512513512511511510511513515511508509510513513510512515517519511511511508509511512510511510512510510511511513512514514510512512515511510511512512511511513512512510511512515514512512514512517512512511508512512510512509511514511515515513512512510512515511513511511516514512512513508509508511516514510508510515513513515514512511508509509512512513512512512513517519517511510511510515516513508509509510511515511512507512514513510508506512515516518510510512512515512514508510511512512513511511512511507509509509511515511517516512508507508511511516516515514513514511511511510509511512513512513515512512511513512513513514511511512511512511515515509508512510510514514510507509511522519516511504507517504504510510518513512513512512510512511512509513513511507514514513514513511513510513512511512512512510512511512512510510511512512512511511512512515510511515516510511510511515510510515513511511509512515514514512511512511512512513512512510513512513510510512511512515512510506512508507508521519512512511508507512518512513512513519516511511508505511512520514512508510517513511512510510510511510514515510509512511512513511512511512512510510510511512512514513514512512513511510510515515512513512513510513514511510515513512514512512511509510511513510517511508513512512516515510508511509505513516514512514508504513515515512509514510507512513515513511515513510511512512515514512513509510510512512512513514512513511509508513513515515512512513510509509511514515511511513512508506511511508519521513513511510512515513507508508515515515514507512512511510511514511514512513512509512514513513510515512512512511513515512511510510514510511512515515513513507507507512514517513511511510512515516513511511512512513511508511511511511512510512512510511513513513511508511513511514514511508512513511513512512514515514511510510511512513514511511513515512512512511511511514510512512513513513512511509515511513511512513511510511511511508510511511513513513514514512511512512511510514514514514512510511510511512512513510508513516518514512512514512514511506506510513517514509511511511513510514515512515512512512512515512513509509509514512511511511511511511512512515511510511514512513513512514511512512512511512515512515515514511509511512510511511512512511510510513514513509514512512512511512514511510512512514512512511511512512509510503504518523518511513517513513510511512512514513512511513511511512512511512511513512512511511512510513513515509511511512514513512512511511510512511511512512512514511510511511511511508512510512513512514511511512512513513512513510510514513511512513512513512513513510509512514514510510512513512513512512511510510511512515513514512509513511513511513508510512509509509510512510511511512512512511513513514514512514512513512512509511511513514511512512513512512513513511511514512513510514514512513514511510510511513513509514515512511513515512510511512515512513511511513512510511510511511512511512512515512513510512512513512512511512511513512513512512513511512512513512512512512511510513514511511512513513511511511512512512512510511513512512509511512512512511513512511513512513512512513513513512512512513512512511512514512511514511511512512513512514512513511512512511510511511513510512513512511509512510513512512513515513514513513511510510510511511511512512513512513513511512512513513513513513512513513511509511513510510511510512512512513511513512510511512512512512513511512512511515511513511512513511512513511513512511511512512512512510510510511511511512511511511512511514513515514513512514513512514512511515510510511509511512512514512513511512512512513513511513512512512514512512509511510512512512512511512511512512511514511511511511511510511511512512512512509513514515514512511513511511511512511511512510510515512512511511512511510513512514512511511511511512510512514513513513512513511513513512513511512512511511510512512513511512511513512512512512513511513512514512512512512510510510510511512511514513513513512512512514512513509511513514511511510511510511509512511512511514514513511511512514512511512512511512512512511513511514512513512514512513512513512510511515513513512513511513512512511510511512510512508511512510512513511511510513512513511513513513513511510510511512510511511511510511512513511513513513513513513514511513511509511511511510511513510511513514511513512512514513510512512512512513511513512512512513512514513511512513511512510513511511512512510511509512510512512513511515515513512511510512512510510512512511511514512512512512513511512511511513514513511511512511514512512512512512513512511512511513512513511512508510512512513512512513513511511511511511511512513512512513511511510511511512511511514511512512513513513515511512513513513514513511509512512512511510511511510510512513512511512514512513513511510512512513514514512514514513514512511512512511511512511510510509510513510511512513513511511513513514511512512512512512512512511511511512512512513515511510512511510511512511511513510512511511510514513514511512512512513516512514511511512510510511512512512513513512513515515514512513512510512512513513511510511511511513510511512513513510509510509511508512511514512514513513515513512512511514512512512513513511510511512512511509510512512514511513513515513513513511513513512511510511511511512512512512513511511512513511511513512511513512513512514511511510512512513511510513513510511512512512511512509511511510513513512514512514512513514511513511513513512512511512513512510508511512513513513513512512511511512512511513510511512512512512511510510511512512511513511513513513511513512512511511513512511511511510509513510511511512513513513512513512513514513512513515511512512512512512513513511513512512512510510511511514514512513512511511511510511512512513511511511511511511512512512511512511512513510513515513513511514514513515512513512510512512513510513512511511510510510511509510512512512513512512513512511511512512514511511513511511512513511513512512512514512513511512514515513513512513511510510513512513515513514512512512510511511511511511513512512511510510509513511513513512513513511512511513513512513512511511514513513513510509512512515513511513511511511511511512513511512513512510513512513514512512512512512512514513510511511511511510511513512513512512512511512513513512512511512514511512510509512511512513511510512511511512515511512509512517513513511511512511512511510511513512512514513511511512512513511512512513511511511513511512511512513513513512512511512512511510512511512510512513513513509513511512515512512511511512514511511512513512511512512513512512512512514511511513512515512512510512511510510512511511511512514513509513512511510511513512513512511512510511513513513512510511512512513515515514513512512512511511510511512511512511510512512514514511511509512511508511512514514515512512509509511511511510510512511513513511510512513512513513512513511514512513513514512511512511512511511513511512512512512514511513512513512512512511512512515512511512513511511510512510511511511512511513513512512512511512512512512513512515513515512512511512512512510512510511512511512513512512513512510515512512512511511512512514513511511511512510510511512510513511512512512512512512513514514515512512511510509511512511513513510510511511512513511512511512512511513515512514511511513512511513513511511511513514510511511512512513512512513512513511510512511514513514514513512513509511508512510511512513512514511512511514511512512513514514510511509511510511514514512513511512510513514512515512512512510510511512512512513513514512511513513512511511512512513512512512511510511512509512510512510511510511512511509511512511512513512511512511512511511514513511513513512512512513512514514513508512513512515513511512512512514513512513511510514513512512509510510512511511511510511512513511512511512510510510511512509511512511513512511512512510511513514514512512511512511512513511513512514511511511511511511512513515514513515513511512511512511512512513514513513512509509508513510512511511510512512511511511510512513513512513513514512512512511513515513512512512511512512510511513513511510513513510513511512513512510511511510510511510512512512513512511510513511513512512512511512512510513513512513511511512511512513512512511513512510511512512511513512512512513512512511512512510512513513512512512511510512513513514513513512511510510510512512513514514516515516515510509509509509512509511510511510512510510512512510512513512510514512511511512514513514512513513515512512512511513514512512512512511511512512512509512512512511512511512511511512511509513513511512511511510512511512513513512509512512513512513512511512512512511512512511510511513512513514515513510511514512513511512512513513511512512512512512513512514511513512512511510511511511512510509511514513512512512511512512512511511512512512512513512512511511511512512512514514514513512512511510513511511511512512513512515512512512512508510509511511512511511511513514515513514512511513512514513512511511511511513511513512513511512510512510512512512511512511513511511511513513514511513513511510512513514512513512511512511511512510512510512512512512510514513512512512511513512511512510512510510511513512511511512511513512513512511513514512513514512511513512511512512511512512515512511511513512512512512512511511511509511511511512513513512511512513512511511512511511512512513512511513513513512512511512512512510509512511513511513511511512511511513511512513512512514513512511512514514512511513512511510512511511511514511514513515514513512510513512514509512512511511512509508509511511511513513512512511512514514510512512513512512511512510512511511511511512512511511511511515512512513512512512510514513513512514513511511512512512511511512512512512511513514513512513513512512511512511512511511511509511509512515509511511511511512511515513511513513511511511509508513512515514515513512511511512512512513512512511513511511512512513512512512513512513513511512513514512511511512511511512514513513511513511512510513513512515515512512511512513512510510510512511512512512513513512512512510510515512513513510509512511511511511513511512513513513514513515512511512511512513513512510511512510513515514512510509510508512512512511513512511511510509511511515513512514512512512510513514512513516518515509509507511509512512515509512511511514512510512514511512512513512515511510510511513514509511511511511510513511514513515514513515514512514512513512515513512515511508509509512511510512510510512512511512514512514513512510512516514511511512511507513513513513511510508510508512515512513513512512512510510510510512513513512512513513513514513514513511510510512512515513512512513510508511516513515520515511508513513507508511510510508509509511511513512511513510510512518515513513512509508507510511513512511512515513514513515513513512512511512512509511512512513511513512513515511511511511512512510508508508514513512513513510510511512512515510513512513513512511513512510508511511512514514513514512512510512511512512513512511512512512513512510511512511512513515514515511512510511513515511511512512513514512511512511511512512511509512512511512515512511513515513512511510511511511512512512513511513510512514513511511510511514514513513511511513514510512514515512511513509514513512513512510510510512513510510510512512508510513513515513512511512511514513511513512509511510511513512515513512510512510509514513514513513512512514512510511509514513513515512511510511512514512509510509511514512511512512512513513511512511512511515513511513512513514513513513511511509512513512510510509512510516515515514515514517513511509512509508511510507509513512510514513510513513510512511510511513517515510512511510511513511511511512510511512512511513513512511512512511512513511511512513512509513514513513511511514511513515515513510511514512511515515514510511510511511511510512511512512513513512512510512514512513517511510512512512512511511512508513512513512515515511512513514512512513512512513511512514513512509515515513507504510513511510511511511511510509510511511510514513514513513513514518512511512511510511510512512513511511510512511515512514513511513514511511516515515510513511508511515513512511510511512513513510511513513512513513515514512514514513511512513511512511511511511513512511509510511512511513514511508507513512513516511511513510513513512513512511511511511512510512512512514512510512510512510509510511513511512512514513514511511512511512513513515519516512511512510512513511512512509512511511508510511512511513513512513514513512510512515516514511511510510510512513511512514513512515511510508508512516510512512518516511511511512512512513513510511512512512511513512513511511513515515513513514511511510511512512513513514512511510512512511511511513511515514509510511510508513519515511512511513512510512511512512510512512513514512512510511512512510513512513512512515514515514512513512512511511511510510512510512511513513511511513513513512513511511509512511510507512514510512516517511515515512512511512511510511511511513512513511510510511511512511511511512514512512511511511511511511510512513512515513514513513513514512512513512511511512513512514511511511513511512513512512512510513511512511512512511511510511514511513510511511510512514512512513513513511512513512515515511513515512513513512510512511510512512511510511511509511512513513511514511511512513512512510512511513513512512514512510512512512512511511508510507514514510514513511510511513511513515513515514512514513512515511512511511511509511513510511511512512515517513510515513511515514512512512513513511513514512511510509512515512513512512510513513509510511508509511511513515512511512513514511511510514511510511511511511511513513512511511512513512515513512512513513511513513512510512511514512513512512511510512512510514513512511513512511511513511512513513511508513512513512513513511511509511511510511514512511513514512513512513512513512515513512512514511512511511507513514513511511512514512511512513511513512512510512513514511512511511511513512513512513512511513512511511511510511512512512513512513512513513511513512512512512514512513512511512512511513513513512511512513512511514513513511511512512510512512513512512511511513513512514512513514513513512510512510511511512511512512512512512511512513510511512511513510511512512515512514511510511513511511511509511512513512514513509510511512511511511513513512512511513512512511512513513513512510512513513510510513513512512511512514515513513513512511511511512513512512512512509511511512511511513513511514511511511512512512512513511512512511511512511513515514511511511512513512509510511510509511513512513512514513513515513513513514513513511511511511512512511512513513512512511509512517514511512512511512512510511508512514514512512512513512511511512511510511511511513512511512510512510511513512511511509509510509509509522519511512511514512513512509511512512510511512512511512512512511512512512513514513513508511513513512516513511510513512513511512512512510510514512512515516513510511511512511513510511511512514513512513513513512512510513512511511512511512510513512512512514513513511508511512512511511513511512515512514512509512514512509510512511511512512513512513512511511511513513513513512512513512513511511511512512511511512512513513511511512513512514514514513513510513511513513510512511510508511511510512513514513511512511511512509510510513511511512512510515513514515513512510510513508510513512514513515513512511512514513511512512512514511513511511511513513515513512512516512509511514511510510512511513512512511510509509512516514512510512512513514514512511509510508512512511511512511513513513514511512512510512511513513513512511511513513513512512512512512512511513512510511510511511511511512515511514512512512513512512512512511511513512510511511513513510512514511510512512511511511511512510511511513512514512513512510511511512513511512512513512513513514511513513512512508513513512513511512513512512510511510509510511511513513513513513512513512511512513511512510511512512510511514514513513510511512512511511515513510514512512511514511512512511510512512511510511511512508511514513513514508510513513517514510511512513509511511510509516509511512514514513516515511510511513512512512512513512513513512513510512510512510510511512512511513513511512514511512511510512511512511512511514514514511511512512511511513513512512511510511511511512512511512513513512513512513515511514511511511511510512512513511513511513512513513511511512512512511511513511508512513515512512513512512514512515514512512512511513510512508509511511513512511511512513515513512512513512512511511514513512513511512511508510512513513514512512510510512517511514513512512511509508513512511512511510509511512512513512511511513513513512512513510513513514513512510510511512510512511511513516513511513512513515512510514515511511514515510511509510511512510508512513511511511511508514513512512513513513514515514512509512512511512511511511510512510513511510512508511510511514513512514512514512511514512515517512513512515511510508509514512512511512511513513513512510510509510514512513512515513513512514512514517513508511511515513513512511511511511512510510509512514513515513513510512512510511512512512510511512513512511513512512512514511513512514509508511510510510506513511517515512511513513513512513512511510510513512509510511511512511513512514514512512513511514514513514513511510508509510511513512511516514512512512512511514513512511511513512512511511511510511513511511511513511512511513515514511511511511515516514512513511511511510511511511513511509513513512512512511512512512511512513515512515515515515514515512511513513510509510511511512510510510512512510511513510514520515513511509513511511512512512510510509511512514512512513511512512514513513510513512511513513512513514511512513513512513512512510510511510511512512512512511513512511514512508512511513514512513511511512510510510511512515512512511514515512511511513514514514512511514513512513512511512513511511511511512509517513509512511511512510515515509513510513513512512513512512511513512511508512512513515513511513512512509513512510512512511511511512511512511513511511511511512515511512513512514513512512510511512512512512511512513514512512512512511511511513514514512514512512511512512513511512511510511511513514512512511513514512509512512512512512511512512512512511511510513511511512512512510511513511512513515515513513511511512511511512512512511512512512511511510512511513513513513512513512512512511512512512512513513511512513513511511511511512513510512512513512511512512513512512512512512512511511511511511512511511511512511514513513512511512514511512512514511512511511511512512511508512510513512514513514513514512513510513511513512513512512513512511512511512509511511514511512513513513511512513512514513512512513510511512510514511510513511512513514511511512512511512512513512509512512511513514512511513511511512512511512513514513511512512510512511510512513513515512512513511511511512510512511510512512511513513512512512515512510513512511513511511511513510512513512511511512513512511511511511512513513512513513514514512512513514512512511511512512512512511511511509511511513514513512512514512511511511513512511513511512510510512512514513512510512513513514512512512512509511511511510511513511510513515513513513511510512511511510511511511512513512513510512512512513513512511511513513514513512511511511511511510511511511514514511515513511512512513510508513515514512510514512518511509509504511513516517516511509510512512512511512513514515512511512513511510512512511511512512512511511513511512512512513512512512511511513513510513512511511512511511511511509512512509510512511512512512512515513512511509512512513514513511512514510512511512511512511515515511511512513512511511511513512511513511512514511513512512511512511513515512511512512512511510512513514514512513513511510511512511511512510512511511512514513512511511512513511512512512513510510511511514514514514515513512512512513514513511510513513511509511511510510512511511512512513513511511512512512511511512512512511513511512511511513513513514510515513511512512511512512510512512509513513511511513514513513513514513514512513510511510513513511510511512510510511512512513512512512515512512511512508508511511511514514514512512511513512511512511509511512510513514512512511511511511515514513515512512513511511511510511513511512514514512512512513512512511511513511511511512512513512514511512512512513512512512510512511514512513513513513511510513514515515514511508512508509514509509518519511509512511510511510512511512513511510513511513512512511512512512509512511512510513512515514513511513511513512512512512512512512512511513513515512513512511512513514514511510512511511512510511510510510512512514512511513513513512515513512512513513514513512513510511509511511513511513512513513512510512511512512513511511512513511511512512512514512513510512512512511511511511512512512513510515513510510512513512511514510512511512510512511511511514513515514514512514511513511512513511512511515512511513511512513513511512511513511513515512512510511511511512512513510512511512511511512513513513510511512508512512511513511513512513507512515515510508511511511511514510515513513514515511513511511514512510513513511512512514510511512512511511509510512512513512512513512514514512511512513513513513512512510512512513510510508512513513512511511513511509510512511511511512512513514511513511512513513513511511510511510512513512511511509507512518515511513513512513511511513511510513512511510510511513513512513511515512507510510511513512513513512511510512511514512513512512511511513513510510510512511510511513514513508512511513511511514512514513509510512508513511511512512512513512512513512514513510513513511510510512515513511511512512513512511511512513512513511510512511510512510512510512512511513514512512513512513513515513512511510512514515512512510512510511511513512511512511513511511513510512518512510511512510509512510510510510512512512510512512514512512512512512511514512512511511511512513512515513514513512513512512512511512510510513513512512513510513512512511512512513511510509508513512512513513514515512512513513512512513513513512511512512512513511512512510512511510511512513512512513513513512512513511512510511511512511512513515512512513512513514512512509511510511512512512511511511512513511513511511513510513512513513511511510511511512514511512513513513512509511512512511512513511511511512513513512512512513514512511514512512513513511511511510510512512510512513512514511513511512509510511511512514513512514513512512511512513514512513513511513512515514513512510511510512511510512512512513510511510511512513513514511512513512512514513512511511511510512514514513511512512511511513511513512511512511512512511512511512512512510510513513511512511513513514511512512512512512513512511515513512511511511514512512510511512511512512511512511512512511512511511512513513513512511512512514513512511515512513514512511512511512512512513510510512510510512511512511510512513513511512512512511512512512512512511513514515514513512511512512511512513514512512511512512512511511513512511512511514512515511509510511512512511512511512512511511514513512511511511514512514512512514513511513510512512513512513514512512512513512512512511511510511510511512511511510513513512513511511512511511514512512514515511511511510512511511512512511514513512510511512512511512512512514512514511511512510515512511513510511512511511511513513511513509513511512509513512514512512512513513510512511511511511510511512512512514512513512512513511514509511513514510512511511511511511513512510511513513511513514512512511512511512511511510514512511512511511514513514511512512512512513512510512512513512512511511511512511511511512513510510513513514510512512510514512512512511512514512513512512515513512512513513510510509513512512514515513514513512511511512511512510509510512512512511514512513513511513512513513515512512513514512512511513511512511511511512512512512512511511512512513512511512511511512512511511512513513512512511510512513513511511511510510513514511511512512514513512512512510512511510511514513512512512511512512513511512512510511512510511511514512511513510510513512512514512512511512511509511512512512512512511510513512513514513512513512515512511512512513512512512511513512512509512510513512512511514513512513511509512512513514512511512513512512513512512511511511511512512512513513513513512512510510511511512512511512512513512513513511512512510512513512513512513512513512512514511512511512513513512513513512511510511511510512515511510512513512512511512511511512510511510511511511512512514511512512511514512513512512512513513512513513513512511512513511511512511512512510512511511512512512511513511512512512512511511512512513511511513510512511511513513512513511514512512513514512513512513512513512511511511511510511514511511511512512512511513512511513512512512515514510511510511512512511513513512512512510512511512511513512512515513512511510512511512512511511513511511513511512513512512512512511512511511510513510511514514513513511511513513513512512510509512512511511512511512512514511512512515512512511511511510512512511515513512511511511510512513511514512509511513512512512512512514511511509514512512511513512513511513512511511512510511510513511512512513512512511511511512513511511513513513513511510514511513511512513512513514512511510514512511510511514513512512511512512513513512511512512512512514511513512511512512513512509512512512512511511513512511512512512514511509512514512513511510513511511512511513511512513511511512512511512513512512511511511513512512511513513513512513511512512512511512513513511513512513512514514512512514510511512511512511511512512511512512512512514513511512511513510515511512511512514514512512511510512513511512512511513512513513512511512513512512512511510509512511512512513511512512511514512513513511511511512511511511511510511512511513512511510513512514512513512513511513509512510514513512511512512515513515513512511513512511510511511512511513511512510513512514512512512512511513512513511514510512510511513515511511513513512512511512512512512512512512510512512512513512512514511513511513511512512510512512511512511512511514513511512514511510510512512512512512512512512512510511513514513513511512511513513510510512512512512513514514511512511512511512511512512513511514512510512510511512512512511511510511513512512513512512512512511511512512514513511510512511511512512512512512512513512514512512511511513512512511512513512513512512512513510512513512511512512512512511509511510511511512510512515513513513511515512511511510512512512512510511512514514515512512513513512512511512512509511513512512511513511514512510513513511510510512512512511512512511511512511511511512511511512511510511511513510512512513512513514511512515512512512512511512512511511514511510512512511512512515511512510511511511514512513513512513509509511512512512511513511513512511513511514511513513511513512513514512514510511511511510512514511512511512511512513512510513512512511512513513511511513512512511510512513513513514511513512511512511508512512512512512511513512513512514512514513509513514511509514512511513512510510512513513510511511512511511513512510511512512512513512510512512514512511513513514513514513510512512511514511512513513512512513512514513511512512511512512512512510510509511510510511513511511512512512513512512511511510511511513511512511513512511512513511511512514513513511511511512510512513512513512512511512513511513511513512512512511511513513511511514513512512511513512509512510510513511510511511512512514513512511511512512512513513512512512512512512512511513510512511512511511511510511514514512511513514511511513511511513513512512511514510514512511513514512510509512513513515513509511510511513511512511513512513513509513512512513510514511511512512512509513515512513513513511509510511512509511511511512513511512513513511510512513511512514514511513512512511511512512511512512512513513512511511511514512512512511512509511511512512511511512512511513514513513513512512511512511511513512513512510512512513511512515514512512512511511511512512513512512511512512512511510511511511514510511513514513512511512510513513512512513513512511512513511510513513512514514513512512512512513512513510512512511511511511512511511512511512511512513511511512512512514513512511510510511512511512511511511512511512513513512511512516512513514511511511510512512512512514515514515512512510511512512511512511511510511511513514514511513512512510511512512512513513511512512510512512512512511512512511510511511511513512513512513514512511512512512512512510512511512512513513512511512512513513511512511513512512513511512512515513510511511511512511513512515512511512511512511511512511513510512512514511514513510511511510511512510513513512513512512512511511513514513511511512512513513512512511513511512511513511512512512512510510511511511512513511512514512511512513512513513512513512514511512512511512513512511511511512512511512511514511512512513513511511511511510511515512512512512512512512512510512512510512512511513511511513511514512512515511513513513512515517517515515515513508512511511512512510511513511511511511512512510511512510510513514513511510510509512511512511512513512512509511512513513513511511511510511513513512513512511512512512514511511511512512512512513512511511511510511510513512513513511512513511512511512514512513513512510510512512511511513513512513513512511513513513512510511511511512514511514513510510512515513512512513513513511511512509512511512512512512510512513512513513511513512512513512511510512512511512512511514512511512513511513511512511512512513510513510512509511515511513512511511512511513512511510512512513514512513512512511511512513513513512513513510511512512513512513511512513512511511512513511514511511512512512511512511510512511514512512511511512513512511509513512511513511511512511513511512515515513512512513511512510512512512512511511511512513513512512509512513514510512513510512510512511511512513512514512512511511512513512514510512512514513512513512512513513513512510510512511511511512513513511511510513512512511512511512512511510513512511513514513514513512512512512511511510512515512512511512513511512512512512511513513513513511511512511511510512512511511511511513512513513514512513513515512509510512512511512509510511513513513511512513512513512512512513509512512512512513514511511513512513512513513514512512511512512510509512512512512511511512512513511511511511512511512512511512511512514514513512511511512512511512513513513512513512510513511512513512511512512512512512511511512513511510513511513512513513512512512511512512510511511512514511511512511512512513511511511513514511513511512512510512512512513512513510508511512513514511515516509511513514512511511511512511512511512512512511510513514512512513512512511511513512513513512513510511511513511511511512511513514512511512512512513513513513512511511509507509512515514514511511510515513511512510512514515512512511511511512512511513513513512512510512511512510511512512513513513512512513512512512512510512512512513513511511511512510512512513511514512512513513512511512512512512512511512512511514512510511510512512513510513513513513511514513511512514511513512513513512513514513512511513512513511509512510511513513513511512514511509513513513512516513511511511510513511512511511513513512512511511509511512513512512511513512513514513512511510512511513513514514513512511511513510511511511511512512512515511510512511512511512512513512512515512512513511511509514510513511510512510512515516514512509513513513509506512510511512518513512510511509511512512512510512513514515510507510510511514513513513513512513512512511512512510511512511514513514512511509510513513512515513513513512510513512509512514509512512511511510510513512512511512512512514512512511512514512513511513512510510515514514513512513512511513513512512512511511508510511513512517514505512511511513515512512512511513511511512510511511513513513513512515514514510511513513513515515510510510513515512513514512511510508514513513511512509510511515510508512513512513517512512513512511512511512513512510510513513513514508509512512511513512509511512511515513511512511511515516516513514509508513512511511510512514511513510510512511510516520515512512510509508513518504508515518509510514512512511514513514512512508511514514511510512513511512512512511513513514513513513514513513511512511511512512510510509516511513510511510510514513512512512513511512511510516508511517516515510509512511510514511514512512512511511510510510511510514516514508512512511515512513512510508509510510513512514520515513512508514519507509512514511513512513511511511512512513513511510511513511511512511510510512513513512514511511512515511510511511511513516512511515508509507507516521519519512512511511513512512512511506510515513512509511512512512510515516511513511512512512512515513509508511511512510510516514509513509512512509512511512516514511510517518513512513509510510511509510508512511512511512513514506511513511512511510511511515515515515512510510509512508511520519515507506510512517519518511508506508509512512509506514518515516512514513512507501508511519514511512515515515513513513511512512511516512506508516517513506510515511511512507508511513516510510512518511511512511513514514515512509508508516514514512511510508511509512512513511509511513514511515513512508510510510510517513513514510510515511515511512512510511513509511508510513513512512514512511512513511513512509510511512515516516517517508502514512512512512512515516507503510515515514513511512515516512514503504510519516515510509505509509511512517514515513513511511512519513513511514514510510507511519509505519519511511510511508509510511512511516511511511508515524518505510513511512508509511509512509511512512512516514513512512513514513507508512512515507509513516511512505508517514510513513514520512504504523526516511510506501505515518511511514515513512511512510510508507508514516513513514514511513515513510511511511512513511510511514511509512511509510514513514516514513513512509515515513512516516507503516505505511515511509511514508506507524520515516513515507510511511512511511512507508511512519516513513510512512513512512512516515511511511511512509512512514514508507506516515507509509512513512512511513516516513508510511509512514510507512518512513517517515512514512511512507508509510512512509517511512514515515512512512510506509512511509516518513514508507510509515520513512512512513511510512514513516507510513512510510508511519516518512512507506514512512519511509511512513513510510512508509509512516513512513513509514514513515514508512510510510515513511513516509512512507508509513514509516516515512511508515510512514512508508509510508519518516511506514515510509513513513512510513512512511509507512513511508511513512509513518510510510512516512510511512512511511511508511511513510518518516513513513511510511513513513512511510508510512512513512514512513513513515511513511510510510510509513516510511510514512513509512514513508509515517514512513513512514511510510511512513512512513512511511510514514511511508510510512515514512512513511508513510513512511513514513512511507507512515510508519516511511515514507510518517511509512516512511506508515515518515513507505512509511514514511510515512508512511513513513511512514514511514511511512511511511510511510514512511511512511511511512512513511510510512514512511511511512515516512513511511512511509511512517511512514513509511513513510511510515513512510508512513516512512516518515511509508513512513512510509512512510512518513513509508509509519515515510513513508510513513512512511510512512510512512511512512512512512513512512514514514512513514512513510511510509512512510512510513514514515513512515512516513512511504505513508511511514512519514514515509509513512512511511512510510509515519511510512512511512517515510510509510510511512512512512513512511512511511513513512512514511512517514514511506511513512511513512511513512515511512514511512511512513514512512512513511511511510512511514513513511510507507512512508516513515508516511511513512513513512511511511507511512514512511510514512516512512511513512512512512511510511508510514511515513514512511510509512516515512515513517512513510510507508512512517515512510512512510513512509510510512511511513513512513512515513512513512513511509511516514508510513510508513512509511518512512512515515513512512512511508509508510513513512511512509511512515515513510508509515514512514513511513511510511510511518513511509512511512513513518513512508510512512508510506510513517514510509513511513514514514512512511510509515517513513510505511518511508512513511513517509511512511511513513514515513511510510508509510509513513519515509513517516512511508512514511511513513510510508513515511512511516515511509511515511510510511510508508511511512512512512514516515511508510512521516513507508510512510512515513512513511507508511516512511514515519516514509505510512510512514512512516509508511511511510508515517511509511511516510513519515510515510511510508507505514513512513517515511508510511512515514513513511507510512512514513517513510509511514512513512509511511513517513511510509511512511515516511510511510509512515513516515512510512509514508519511513518512513512510503506514515512512509510511514510514515511509511513513511512511513512509511514510508512511507514510510513507513516515513514512513513518515511506512510511507507508513511517510510514513517512510511511509516515513515513507508507514517516512515507512515510508513513512512514512509512510514512514513511512510508510516516510512510512503514516512519513501506510512512510515513512512513513507509512516513513515516514511514512511508509517513511510513515511512511512513510511512511510513511511513511512512510513515520515512511507510514511505510512511515509511512518511514516516513513509512511515517513505513513510510508512511513516514508508511514513511510513511514515510512512509512514511511512511512511512512513513512512511511513514513513514510508512518519516512512511505508508510513511509511512513508512514512512513514512513511512513512513512513512511510510511513511511511513514511512512512510511512514516516518516510512511507509509510510515514510511513516515520510505508511512511514510508510515517514513509511511511510509512513512515515515512509509513512510511512510510511511510514512513512511512511514516513511511508507505508510517526519509512511512511512511513512512511509510511511512512513511510511513513516513510512513513516513513513511512506505518517512512512511511511510512513511515513513515512512512513513509510512511513512512512512513514512512512511512511513512514512514511512512513511512512512513512512513511511512508509512512511510510514517517514510505511513512512512511510511511514510511510511512514518519513510508510511511509509511511512513511510511514515513510511513514512512512511512511511513513513512513513513512513515513511511512514513512512512512511513512510510511512512513512512512511509511511511512512519513513511510513513515512514512513512508508510513516514511507512512513512511512512512513514512510511513513513513513511513512512513512510512510509508512514510511509511511512513511514514513513513512512512511510513512512515513513513513512511511511511512509512512512516514513511511510509512513515513512511511511511512513511513513512514511510510513513513513511511508514516514511512513511513513513511511513512513512511514511511508509511510511511512513512511511511513512513513513511512513512512512511511511510514512513513512512513513512513512513511511511511510512512512511513515514511510511513511513512511510512512512511511511508511510510513512517514513511512513515513512511511513513514513515515512513512513512510511512512511512512512512511510509510513511511512512513511511511512512513510511510512510513513512512512513514512514512513512512512512512511512510511513514511513512512512510511512512511512511512513513515513512511513512511513515512511511510509511512513505514509507513518514510508512514511512511513512512512513512511512512512512511512512512513511512513512513514512512511511510509512512513511512511509513511512511512515511513512510511512511513513512511512511511513510513512511513511512512512512513512512512511510512511511513514515515513512515514510512510508508513514513511510510511519513510513506508516509519520517509507511511510512511514513512513512513511513510510510511511512511512511512511512511510513512513510512513512512511511512512511513509511512511512512511512511512514513512512513512509508510511515514512512512512513512512511514514512512512512511512512510512511510513510513511509511513513512512512510514512513512512512513511512512512513512513511512512512513512512513511511513510513510512511511512513512514512512515512511512511512509511512512512513509513513513513511512512512512511512511511510512512512512511512511514514511515512515511512511513512512514514511510510512512511512510511511512512511513512512513511511512512511514512510511512512511514513513512511509511512514512515513511510510510510511514515512513512513512509511514514513512510513513512513511512513513512513513512512512512514512510510511512510512511513513512515511511513511512510513512512513512511511514513514515514510509509511511511508509511512513516514510512510512512512514515512511510511513513513513512512511511510513512512512512512513514513513512512512513512513512510511510512511512511512511512510511510513512512512512511513513511513514514511511510512511511514513514512513512510513512512512511513511515512513514510512513513513511513512512512512512512511512512513511511513511508511511512511511512511512513512513513514511514512513513512510510512513511511512513512512512512511511512512512510511511512514512512513513513512512512512511512512510511510511513512512512513513514515512512512510510513513512512513512512512512512512511511512511511512512511512512511512512511513512512513512511513512512510513511511512513514515514515513510512512511510512512514510512511513513510511512512511511511512512511511511513513513512514512513511511509510512512514512512514515515513512513511510511512511510512512510512513514513511512510512513511511512512513511513512511512512511512513513512512511513511513512512512512510512512511513514510511510511512513513509510512512515512512512513515515511509512513511510512511513512513512511513512511511512514509511510512512511511511514513512511511513514510513511512512513514515513513512513510513513511510512510509509512512512512514512514512514513513510510512512510512512513512513511513513512512512511511512512512511514513512513510512511513510511509511510512512510512512514513513514511512512512511510510512511511512512510513513512513512514513512512511511511513512511511512512512512512511512511513513511513514514513512512511510511512511511512514512512511511514511512513512512511510513512513512512510511511511511511512512512510511511513512513512513512513512511513514512512512515513511511512512511511511512512513511510510511514513513514513512512513514510512514511512512511509509510511512512511511511511509511510512512513515514513513513514514512511509512508512512514512514512513512512512512510510510513513513512513512512515512512513512513511514511510510510512510510511511512511512512512514515513511513511512510512511510512513514513513511512513513511513513514512513510512510511510510512511511513513512512512512515513510510512511512512512511513511513511512510515512513513512513511512511512511513513513512510511511511512512514514513511511512510511511512513512511511510512511512510510513512513513511512513512512512512512510509510512510513513512513512513512513513512512511512512511511511511512512512513512515513512512512512512513510513512511513511511511512511512513512514513511514512510513511511512511510512511515513512512513513514516512510512511512512513512512508513513513511512509511514511511513511513511509514513512512512513513511511515511512511510511511510512510512513514515512513513512514512513509512512511512510511513510512510511511514512513511511512513512513514515515514511512511511511512511511512511511513511512512512511510512511510512512513513512512512511511511514513510511511513511512512512512511511509512512512512511511511512510511513513513513513512513515515512512513510510510509511511511508513515514514512513514515511513511511510512510511513511512512510510511512512513515513516512512512514510510510512510511510508513513513513515515512512511512512513511512513513512512513513514512511514512512509512512512511510511510509513512512513511513512513513510512512510511512513515512513513514514511511512512511510511511512511509512510514512514511513511512511511512512512512513511513513513514512513512512513511513508511511513512515512509511512509511511511512516513513513514514513515513513511511513512513513512508511511511511511512512511512513512512512513512511510512513513511511509511511512512512514511512513514515511512513513510510511513511512512512511512513513511511513514514511514511515512513512511510510512513511511511512514512511512511512510512513512510511512510512514512512512512512511510512513512511512513513513512512513511515511512511512513513512513513512512512511511511512511511512514512512510512512512513511511512512511511513512513510510511512513513511511511513511512512509511512512514515515514513511511511512510511511512512511513512510512512512511511511511513514510512511513511512513512512512512513511511512510511512511512511511512512512514514513513512512513512512512512515512512512510511511512511511510512510514513516511515512512512511512512512513512514513513512511510512510515513511511513512511511512513511510511513513512510511512511512514513512512513513512513511510509512513512511511512513511512512512511512511512510512511512512512510512512514513512511510512509511515512512513514514515511513514512510511509512510511512512511511511512513513512514511514511514514512512511511512512511511511512511511511510512511512512512510512513513513513513512512511512512513511511511511512514514513515514514512512511511512512512513511512511511512512513510511511511514513515512512513511513513511510508512511513512512513512513514513513514513512512512511513511511513510513513512510512511509510512512512513513512512512513512514511512514513512512512512511509513513512512510510510511514515513513513512509510508511510512513515514513511511511513510511511511514513511512513514513512512512511512512512512513512512510512512511512509511512511512511513514511512512512514512512512513512511512512513513511513514512511512512511511512513512510511509510512513511511513512509510512510510510511511512512513515515515515515513513508510511512512511512512510512511511510511512510513513512514511513513513513511511511511514513512511511513512512514510512511508509511513512511513513512510510508513512513513513511513511512510515513511513512512512508510511513513512517511512511512511512511511512511513514515514511511515513513512512512512512513511511511510510512510512511511512511512513511515513510510511510512515513510511512511511511511510513512512514512512513513512510511511512512511512513514508512513513513513512515514513512514511510509511511511511513513512510511514511512512510515511513511509510511515512511512513514513513511511510512511513511512512512512513512514513513511512512511511511512512511512514512510511511511512513514511511511512512514512512513512511511512513510510511511513511511512512512513510510509510511513512512513511515510510512512512511511513513516515514513512513511511512510512514515511510512511514512513512514514513512510510511508511511511509512511512511512513512510513515513512510512512513512511511512512511509511511511511512512512515511507514517515511508511512512513513513514512511510512511511511511511512512511513511511512511513512513515512513513511512513514510510509511511512513512512514512512509511510513514513512513513513512511508508512512514512513513513512510509508511511512514512515512510513511512513513513511509512514513513515511514511511512511508510511513512510507514513511512512510512515515510511510510511510513512511513510510513513515511510512513514512514512512512510510512512512510512511511513513513513512513510512510511512511511513513512510512512512512513514514510510510508513515511512512513512510512512512512512512510512512512512511512511512513511515513512512512512510512513511511513512513512513512513512510513510513509510511512512514512515516515511510511511510509514513511513510514513512509515515510512512512513510510509511510512511510512511511512513513512513511513513512514513512512510512511512511511515514513514512512512512511514509510513512510513512512511513513513513512514514514515510510511511511511511514510510510512511512513512512513512511511512513510511512512512512511512511513512512513512510511511512512512511511513512515514512510511512512513515511513511513510512512514513512512511512512512511512511510511513514512515512513513512510512512512513512512512513514513514512512512512511511511513514514510510510512510512512511511512511510510511510513512513513513512513511513512511512513514511513513511511512511512511510512513514511512512513511514513512511510511512511515510511511511512512513513513511512512513511511513511512512514514513513512511513513512513512513511511513512514513510509510512511512511512512511511513510512512510512512512511511512514511513512511513510512512511512512512512512512511510510511510512513513513511515514514515513510510510511511515514514512513511512511511512511510511510512511511514514512512514513513512512514511511510513512510510512512513511511512512512513511511513513512513512512511511509511512510512511509512512511512512512513514511513513512512511511512513512512511510511511511514512513513511513513513512513512512513512511512513512512511512512512513511511511511512511511512512512513512513512513512511512511510512512513511512511513514513511512512511510512512513512514513513511511510513511513512513513512513512513512510511512510510512510511511512514511513512514512513512512513512513514515512510512511510512509512512512510512512512512513512512513512512512512511511513513512514513512514512512511512512508511512511511512513512512512512511512510511511511511512513510512512512511512516512513511512513512511511514514513512511512512512513512512512512511513511511512511511513513512512511512512512510513512512513513511511514513513513511510510512512511510511512513512513511511512511512512512511512513512513511512511512512513512513513515513512511514512512512512511513510514511513511511512512511512514513512512512512512512514513512512512514511511510511511510511512511512511511512513512513511509511513511510512513511512510510513513513512514515512512512512510512510512511512511513512512513514513513511512511512510511511510512512511513512514512511512513512514512512512512512511513512511513511511512511510512512513511514512512512516512511512511510512510512511514514512512512510511511512511511511511512512511511511513512512512514513513513513512512509511511511512512512511513513514513512511511512512512512512512512511513511512511512511514511511511512511511512512511510512512512513511514511512512514512512512514513513513513513512511513511511509511511512512512512513511512514512511510511511511512512510512514512512512513512512511513514515511511513515512514513513510510511513510512511513511512510512511512511513513510511511512511512512513513512512512513511511512513509510511512512511511512512512512512512511512510511513512513514513515513511510512514511511512513511512512513514515513512513512511513513511512513510511510512513513511512511511511511512511513511512511511512508512510511512514513512512512511513513512513512512511512512511512512512509512512513513512512512511511512513513511513513513513513511511511511512512512510512511514511511512512510511511513513512511511511511511511511512513512512511511512514511511511512513512512513513512512512512512513514512512511513512513512512515512511512512510511511514510512513512509512509511510512511511512512510512513513513514511513512512512513512511512512512513510512512514513511511510510514512514513511513511511511512512512513511509511512513512513511511512512512512512512512511512512513511511514513512512510511511515513512513513511511512512511514513512512511514513512513512512510511511512511511512512511511512514514511511511511512512511511512513512512512511512513513512511512512512511511514512513512512510512512512510512511512512513514511513510512511511512511512511513511513513512511512512511513512511511511513513513510511512512512513514512514511512513511513512513512512509510511512511511511512511512510511510514512512511513512512510511511512513513511512512514513513511511510513511514511512512512512512512512512511512512513514514512513513512512511513511511511512511512511511511513512512510512511512514512513512513514510512512511511511511513512514512512514514512513511513512512511513511511510510511514512512510511512513513514514513512511511513510510511511512512513512513513513512509512511512513513513512511511511511512513511512511513513512511512511512512512513512512509511512510512512513513514513513512510511512512512512512511513512512511511512512512512512513511512511512511512510512511512511511513513511511511512513513512512513510511513512512512510512513513513510511511511512511512513512511513511512510511511511511512513512512511510512513512514512512512512514513513512513511511511512511513514512512511514513513513513511509512511511510511513512512510511511512513512513511511511512511511512510512512512512513512515513511511512509511512512512511513512511510511512511512513514513512512511511513513511511513514514512513514512512512513513513511510510511512508512512511513512512511511511511513512511512514512513514512513513508511513511511510511511512511511512513514513512511514512513513511509514512510512512513511511511512513512512514514513509509511512512511512510513513513509513514511512514513513511511510511510511510511512514511514512512511511512513510514514512511513512512513510511512515512511512512511512511513513512512512509509512512512512514511512510511512513513511513510511513512512514513512512513513511514510513513512511513513512513512511511510511512511514513509510512511513512513512513511512512513512514510511512512512510512511512513510512512512513513511511513514512510511512513511511510513512511510511510513510512512510511511512513512513511512514513513512512511511512512511513512511512513513513513513512511511511513512513511512513512513510512512513515511511512511510511512512512512511512511511511512512511512512511512512514512515513512512512511512512514511512511511512512511512510515513512513513512511511511511512515513512513510510511511510512510512512514511512512511514511512511512512511511511513511510511512513515513510512515514513513513509512512512511512512511514515512512512510511511512514512513513512511511512510511511510512516513512513509512515515513512512511507510512512511512513513512512512512512509513514513514511513510513512512512512511510512511513514512513511512511511513514514511512512512512513515514512511512511514511512514513511512511510513511512511511512513512514513513512512513511512513512513511511511512514511513511511511513511512513512512514513512513510511512511511510512512513512513512512511515512512511511512511512512510510512511511513513513512512512513511511509511511512511511512512511514513512513512512512510512511510510511512514513512511512511513512513514514512511511512513512512512510512509511512513512510513512514512513513512511511513512511512512514515513511511513512512511512510513513512509510512509512513511511511513511512513512511512512512510512510514512513512511511511511511513512512512511515514514511511511511512511510512513514512514512515515512511511512511511512510512513510512512511515511509511511512514511512512513511511511513512513511510510511511512512513512513512512509512511512513511513514512511511511512512510511512513512513512515514513512513514513513511511509511512511512515514512510512513511511512512512512510513511512510512511511511512512512513513513511513512513512512511512514510512512512513510511511509512512513511511512512513511509512512512511514513514510511511510512512510512510511511513512513514512511513513511511511511513512511512511512512514511510511511514511511514511511511512513511512512513510511512513512511511512511513513512510513513511511512513509512510510512514514512512514513513513511512512512511513513511512512509511512513512513513511511512512511514513514514512511510511509511509512515511512514511511514514514512511511508508511515515513512511508511512514514513511510508511508510514513512510511509509513512514512513513513513511512511511509512513515512510512511512512513512511510513513513513512511515512509511512512513512514515515510512515514510509512512510511511511510511512512511510511511511512512514511513511514513512510510511511515512511513513511512513513511513513512512512512509510510515513515515511511513509512512510512514513513508510511512512509512514510513513513511513515513511513510512513510510513513513511512512512513511512514514514511511512512512512510508513512511511512511513512511512512512513514512510513512511514511512513512513511512514509510510513511511513512511515513513513513514511512513511512511511513513511510511512513512511513511511511514511511511509511510512515514513512512510511512514511510509511513513513513511512512513512513512514512512510509512513512512512513511510512513511513512512512511511509510511510513510515513511511511511515513512511514514512512513513515510509512512513514511512513515512514511512512513514512512512513512509510511512512511510513511511508511509515516510509510512512512513511515511511511514514511512511511513512514510511512512513514511512511510511511516513512513512512512514513513512513513511510512510514512511510513513511514513515512511511511512508513510511512512512513515513511511512511510511511510515515511512512511512512511515514512510512512512510511513512513510510510512514512512510511513511513512511514515515515514512513512512512511512513511512510512511512510511512513510512512512510509508510511513514514514514513513514514513510508510511509511512513513511513512511512514512511511512513514512512512511512513511513512511511512514513511512511512512512512512512511512512512512510514514513510512518513514512509513510510512512514511510509509512513514515515511512514512511511509511513512513512512514516514512513508510513511511512513512508514510512511511510513511514513511511510512513512511513511513513511512512513512514513513513515515515512511512513509509506511512510509512511513513512514512513513512510511513512516514516508507509510514513514512511511512512513514513511511513514512512512512512510513516509509510511516514513515506508512510512512515512513513514513511511511512511511514512514513513512512512512512513516513508512510508511510512510511512511513514513512513513512511516513511511510509512516512512513512513512511511512516513512515512511510511510511512511512511511511511516513514516515511508509516512512513513510510509509512512511512513512513509508512515512512510509514513513510515513511511511508510514512509512513512512516515512512513511511513511511511515514512512509508508513513514509511516514516512511513513513507511510511511512514511512510510512511512515514514515512511515513513512511513512512512512510512512513512513512511509511511510513511513513513511511511511512512513511515513516511511513508510512513515512509510512514514510511513512513513514512511510511512511513511512512512513513512511511512511513513512509510511511511513517516513509510511510510515514512511510511511512511512513514513512511513511512512512512512513512512512512513511510512512514513510511511512513513511512513511511511511512512513511509509512512512512513517511513510513512512514513512513509515514512511510512510510510511509513516515511510510513515513508514510509511512510513510511516518515512512511513513512512512512511509509512515511512512513514510512512512512512513514512510511511514513510511512512513514513515514514511512509512511512510